tree
version=v3
num_class=1
num_tree_per_iteration=1
label_index=0
max_feature_idx=32
objective=binary sigmoid:1
feature_names=bpm ibi sdnn sdsd rmssd pnn20 pnn50 hr_mad sd1 sd2 s sd1/sd2 breathingrate median_nni range_nni cvsd cvnni max_hr min_hr std_hr lf hf lf_hf_ratio lfnu hfnu total_power vlf sampen dfa lyap NYHA age gender
feature_infos=[39.242163279366174:177.15493808517064] [338.68657937806881:1528.9676966292136] [5.9185068104574015:260.83532447982702] [6.0856775144360444:238.4848003542364] [9.714137444577096:477.00053993811895] [0:1] [0:1] [0:273.4375] [6.8689324604386224:337.26790003077195] [4.5744003828564761:292.893212998661] [103.56447733782773:230611.51524725239] [0.090054192601871905:6.0358517915299377] [0:0.53333333333333333] [296.875:1593.75] [15.625:843.75] [0.0097497152184257002:0.80420847493602432] [0.0068327098948375003:0.54550103253114812] [41.739130434782609:960] [32.268907563025209:112.94117647058825] [0.36405925548787771:191.11873396435712] [0.35828736262980287:26064.4416032275] [2.683236949818669:23060.752293017315] [0.0021206184957411:14.234880000583493] [0.21161309892260169:93.436115020520674] [6.5638849794793295:99.788386901077402] [3.5788564637469769:49561.936317802283] [0.1230037118672322:17416.807439689306] [0.040005334613699102:4.2341065045972597] [-0.54093994915181498:1.7826470461662174] [-0.155704195158822:0.13199266419374869] [1:4] [3:6] [0:1]
tree_sizes=3330 3415 3411 3411 3419 3437 3420 3438 3428 3442 3427 3442 3437 3432 3426 3440 3445 3427 3424 3432 3440 3430 3430 3444 3445 3451 3442 3442 3435 3441 3444 3449 3434 3444 3451 3440 3439 3428 3446 3446 3438 3422 3446 3437 3449 3440 3458 3454 3428 3452 3449 3464 3456 3460 3441 3461 3453 3439 3462 3447 3450 3433 3456 3438 3441 3444 3454 3429 3445 3451 3447 3454 3449 3458 3461 3445 3445 3458 3450 3443 3459 3433 3456 3421 3456 3462 3430 3454 3437 3475 3450 3455 3463 3443 3428 3451 3449 3472 3423 3458 3424 3412 3418 3447 3456 3413 3435 3418 3415 3451 3448 3425 3420 3429 3415 3469 3432 3435 3415 3419 3417 3433 3417 3426 3436 3448 3444 3433 3404 3422 3383 3466 3417 3447 3428 3387 3445 3411 3432 3404 3417 3404 3436 3396 3427 3409 3418 3425 3422 3424 3434 3422 3409 3431 3414 3411 3417 3423 3422 3442 3408 3404 3417 3422 3436 3433 3404 3423 3422 3421 3417 3399 3418 3404 3437 3436 3408 3418 3385 3412 3414 3426 3439 3443 3441 3408 3416 3430 3436 3430 3418 3447 3421 3439 3421 3435 3420 3425 3400 3434 3445 3439 3406 3393 3413 3406 3451 3422 3418 3442 3429 3396 3404 3438 3426 3400 3411 3428 3431 3433 3447 3438 3399 3421 3417 3440 3441 3396 3438 3432 3414 3449 3406 3408 3430 3392 3412 3441 3432 3421 3440 3426 3411 3400 3409 3426 3393 3427 3432 3419 3431 3459 3410 3392 3449 3426 3432 3419 3445 3426 3430 3431 3419 3425 3413 3424 3398 3433 3414 3415 3425 3432 3397 3411 3410 3438 3434 3430 3421 3452 3398 3425 3419 3426 3442 3395 3433 3449 3422 3422 3419 3431 3446 3446 3434 3438 3415 3400 3419 3404

Tree=0
num_leaves=31
num_cat=0
split_feature=30 31 32 3 30 1 8 32 18 5 30 31 18 0 30 1 31 20 0 28 1 12 0 0 9 18 31 0 31 20
split_gain=5899.82 3312.2 1486.95 2322.92 1134.72 1027.59 938.136 1332.01 1937.29 1442.7 634.144 624.846 468.888 465.273 375.286 265.909 238.623 235.486 227.619 321.048 171.941 164.533 123.396 115.611 111.109 90.0239 89.2318 83.0788 103.518 82.4673
threshold=2.5000000000000004 4.5000000000000009 1.0000000180025095e-35 64.80352592920876 1.5000000000000002 870.24441298932777 144.01042357724467 1.0000000180025095e-35 52.247315808959655 0.29922751133381059 3.5000000000000004 4.5000000000000009 45.989672977624799 67.527447300736839 3.5000000000000004 1047.4319023591922 4.5000000000000009 236.59219327371088 67.316128263130054 0.69690065959405689 601.68083635947266 0.2166666666666667 74.919319503293721 64.164718641959581 12.186205713006734 48.919182083739038 4.5000000000000009 62.994659222719342 4.5000000000000009 66.690429709773767
decision_type=2 2 2 2 2 2 2 2 2 2 2 2 2 2 2 2 2 2 2 2 2 2 2 2 2 2 2 2 2 2
left_child=4 14 3 5 11 10 7 8 15 13 22 -1 26 16 17 23 21 -2 19 -10 -15 -9 -3 -6 -14 27 -11 28 -26 -27
right_child=1 2 -4 -5 6 -7 -8 9 18 12 -12 -13 24 20 -16 -17 -18 -19 -20 -21 -22 -23 -24 -25 25 29 -28 -29 -30 -31
leaf_value=0.63988693355099835 0.46362669538728168 0.51688257605462051 0.63988693355099835 0.63770102118804961 0.55230138180386057 0.63223577684857279 0.44001454780885707 0.50663385835478747 0.55783996552299664 0.63988693355099835 0.63988693355099835 0.42371221735863451 0.45720701603192243 0.60599491306409936 0.42371221735863451 0.61793464606605986 0.42371221735863451 0.57705806268616566 0.42449530067579333 0.44402584812805984 0.44817876829021924 0.63639155284774707 0.42764485865140467 0.44556892869228121 0.63988693355099835 0.578209608940498 0.45787415159791095 0.60406475675489557 0.48105539375314688 0.61900312200845309
leaf_weight=35.156747817993164 98.961584508419037 43.468760311603546 1460.3928008079529 521.28895407915115 122.09426844120026 103.10585528612137 484.59329205751419 36.178734004497528 87.603051066398621 7.4014205932617179 42.789462804794312 679.57443594932556 13.434921741485594 18.103748023509979 273.28948080539703 195.65196543931961 25.13938844203949 85.101751148700714 638.50166112184525 211.6805232167244 369.89275699853897 75.230627954006195 355.99483716487885 32.026776015758514 13.415074825286863 163.43317955732346 74.644485175609589 56.27866405248642 43.597166240215302 512.05661594867706
leaf_count=152 278 142 6314 2244 436 439 1263 115 317 32 185 1676 37 73 674 809 62 322 1579 559 990 323 890 85 58 620 206 226 129 2122
internal_value=0.561365 0.5847 0.607109 0.56223 0.491274 0.490091 0.504065 0.515577 0.478817 0.549173 0.456951 0.434346 0.588143 0.483478 0.460883 0.579242 0.562857 0.516072 0.44136 0.47734 0.455542 0.594254 0.437356 0.530122 0.599787 0.602216 0.474294 0.560969 0.518429 0.609133
internal_weight=0 2984.39 2527.04 1066.65 3895.69 545.359 3180.96 2696.37 1287.56 1408.81 442.253 714.731 884.262 524.545 457.353 349.773 136.549 184.063 937.785 299.284 387.997 111.409 399.464 154.121 802.216 788.781 82.0459 113.291 57.0122 675.49
internal_count=23357 11488 10214 3900 11869 1656 10041 8778 3785 4993 1217 1828 3430 1563 1274 1330 500 600 2455 876 1063 438 1032 521 3192 3155 238 413 187 2742
is_linear=0
shrinkage=1


Tree=1
num_leaves=31
num_cat=0
split_feature=30 31 32 21 30 1 8 32 18 5 30 31 18 1 30 0 12 20 0 28 31 1 26 11 31 18 0 5 31 0
split_gain=5226.21 2969.98 1389.46 2105.04 960.998 876.345 799.589 1159.95 1668.78 1281.35 546.558 538.646 421.004 401.128 315.717 245.219 206.231 205.594 189.001 275.035 156.106 154.338 134.875 106.493 148.534 94.551 84.8931 82.1784 78.3176 74.5497
threshold=2.5000000000000004 4.5000000000000009 1.0000000180025095e-35 573.22490681842771 1.5000000000000002 870.24441298932777 144.01042357724467 1.0000000180025095e-35 52.247315808959655 0.29922751133381059 3.5000000000000004 4.5000000000000009 45.989672977624799 856.95995580506462 3.5000000000000004 55.938358836356443 0.24999999999999997 236.59219327371088 67.316128263130054 0.69690065959405689 4.5000000000000009 601.68083635947266 130.80237975971497 1.722077661550115 4.5000000000000009 48.919182083739038 74.919319503293721 0.44870264977663549 4.5000000000000009 62.994659222719342
decision_type=2 2 2 2 2 2 2 2 2 2 2 2 2 2 2 2 2 2 2 2 2 2 2 2 2 2 2 2 2 2
left_child=4 14 3 5 11 10 7 8 15 13 26 -1 28 21 17 -6 -15 -2 19 -10 -18 -9 -17 25 -25 29 -3 -27 -11 -14
right_child=1 2 -4 -5 6 -7 -8 9 18 12 -12 -13 23 16 -16 22 20 -19 -20 -21 -22 -23 -24 24 -26 27 -28 -29 -30 -31
leaf_value=0.076367602532823237 -0.090543269519816505 -0.047001644020991482 0.076367602532823237 0.072339519078205225 0.06187139666672381 0.069216453625717364 -0.11181203508885447 0.042952520919964342 -0.003345907122752428 0.076367602532823237 0.076369197638285147 -0.12638109757766644 -0.040324389667905282 -0.065007968639130692 -0.12638109757766644 0.018286669863231825 0.076921000839263481 0.014974666124622447 -0.12568330803258443 -0.10821316113359428 -0.12638109757766644 -0.10756965420173377 -0.06718228441835182 -0.10229635837076899 0.077759253656826566 0.018968274218745768 -0.12306689532491531 0.059933421300931655 -0.095743967305657929 0.040921387030752959
leaf_weight=34.361009478569031 101.41676159203053 40.796592444181442 1427.3382489979267 523.65376502275467 162.73589068651199 95.397430449724197 499.22749015688896 17.875882267951965 87.687320366501808 7.2338967323303214 40.917492002248764 702.52790796756744 57.610030889511108 75.264659568667412 282.5201730132103 97.289709761738777 70.669111803174019 84.732416689395905 659.95986357331276 217.88289156556129 10.898404300212858 359.84648688137531 87.829499945044518 30.467860117554665 18.353667467832565 166.1232094168663 363.5960446447134 465.40502040088177 76.596056699752808 55.373291283845901
leaf_count=152 278 130 6314 2294 694 415 1263 73 317 32 181 1676 187 226 674 370 311 322 1579 559 26 927 266 84 80 642 880 1974 206 225
internal_value=0 0.0224053 0.0441253 0.000887505 -0.0654117 -0.0683109 -0.0536384 -0.0429813 -0.0768015 -0.0115168 -0.097773 -0.116927 0.0256697 -0.072537 -0.0930698 0.0170968 -0.00531916 -0.042513 -0.110631 -0.0781201 0.0497574 -0.100446 -0.0222639 0.0369298 -0.0346073 0.0416209 -0.115393 0.0491576 -0.080892 -0.000505716
internal_weight=0 2960.37 2491.7 1064.36 3961.22 540.708 3224.33 2725.1 1313.39 1411.72 445.31 736.889 877.163 534.555 468.669 347.855 156.832 186.149 965.53 305.57 81.5675 377.722 185.119 793.333 48.8215 744.512 404.393 631.528 83.83 112.983
internal_count=23357 11488 10214 3900 11869 1606 10041 8778 3785 4993 1191 1828 3430 1563 1274 1330 563 600 2455 876 337 1000 636 3192 164 3028 1010 2616 238 412
is_linear=0
shrinkage=0.05


Tree=2
num_leaves=31
num_cat=0
split_feature=30 31 32 3 30 0 8 32 18 5 18 30 31 0 30 1 31 20 0 26 12 1 27 26 0 18 31 18 0 31
split_gain=4660.32 2679.24 1299.95 1921.85 829.967 808.512 692.369 995.508 1426.14 1073.82 502.271 482.399 470.902 351.449 271.85 245.875 193.468 180.879 161.82 240.205 138.189 129.786 117.159 95.08 91.6344 91.0783 86.3988 85.66 74.0674 91.0618
threshold=2.5000000000000004 4.5000000000000009 1.0000000180025095e-35 66.498068613342824 1.5000000000000002 69.225158648120953 148.20688910452378 1.0000000180025095e-35 52.247315808959655 0.29922751133381059 45.989672977624799 3.5000000000000004 4.5000000000000009 67.527447300736839 3.5000000000000004 1047.4319023591922 4.5000000000000009 236.59219327371088 67.316128263130054 38.616774453912541 0.2166666666666667 601.68083635947266 1.4891767881434743 3.933177592593931 74.919319503293721 48.919182083739038 4.5000000000000009 59.53846153846154 62.994659222719342 4.5000000000000009
decision_type=2 2 2 2 2 2 2 2 2 2 2 2 2 2 2 2 2 2 2 2 2 2 2 2 2 2 2 2 2 2
left_child=4 14 3 5 12 -3 7 8 15 13 -11 24 -1 16 17 22 20 -2 19 27 -9 -15 -6 26 -7 28 -12 -10 29 -25
right_child=1 2 -4 -5 6 11 -8 9 18 10 23 -13 -14 21 -16 -17 -18 -19 -20 -21 -22 -23 -24 25 -26 -27 -28 -29 -30 -31
leaf_value=0.074428934593344667 -0.08438230517002504 0.063943439539007441 0.074428934593344667 0.072829342146437437 -0.0015714801133585527 -0.03690282347172693 -0.10679884393487903 -0.047242652346297265 0.036061906157227271 -0.078331353343958562 -0.12170756193695338 0.074434889138091209 -0.1173130521452114 0.041354868739986866 -0.1173130521452114 0.052969171703535427 -0.11977660123116507 0.01428820222683257 -0.11667549353405034 -0.097219881223559484 0.071326512317842983 -0.097301236216867565 -0.092518055504336061 0.077452587222207797 -0.11440850567584503 0.045636529804771418 0.076882468148965183 -0.095624204037936825 0.039159359688411159 -0.069873511724322254
leaf_weight=33.514639854431152 103.32749046385288 103.59392727911472 1392.1805002689362 494.51592645049095 109.81159751117229 42.428155705332756 467.33913791179657 37.258268594741821 56.054929599165916 111.4731747508049 17.592736214399341 40.353214964270592 718.53601431846619 17.644119679927826 288.95780050754547 189.63654556870461 26.427489757537842 84.372549429535866 675.8139114677906 238.34226095676422 72.179461777210236 388.08499476313591 52.265941351652145 13.271176904439924 376.94569329917431 646.36169132590294 7.9526527523994437 15.838480234146116 58.214214608073235 50.023869454860687
leaf_count=152 278 457 6314 2230 393 137 1146 115 219 307 43 183 1676 73 674 810 62 322 1581 614 323 990 142 58 893 2705 35 43 238 144
internal_value=0 0.0215802 0.0426814 0.000899568 -0.0614316 -0.0622446 -0.0504832 -0.0410306 -0.0721195 -0.0122784 0.0210504 -0.0906795 -0.108768 -0.0679637 -0.0868799 0.0143207 0.00163938 -0.0400292 -0.102952 -0.0730564 0.0309594 -0.0912714 -0.0308995 0.0350133 -0.106567 0.0381703 -0.0598836 0.00705079 -0.00154577 -0.0389834
internal_weight=0 2926.68 2450.02 1057.84 4003.64 563.321 3251.59 2784.25 1337.76 1446.48 904.89 459.727 752.051 541.594 476.658 351.714 135.865 187.7 986.05 310.236 109.438 405.729 162.078 793.416 419.374 767.871 25.5454 71.8934 121.509 63.295
internal_count=23357 11488 10214 3900 11869 1670 10041 8895 3802 5093 3530 1213 1828 1563 1274 1345 500 600 2457 876 438 1063 535 3223 1030 3145 78 262 440 202
is_linear=0
shrinkage=0.05


Tree=3
num_leaves=31
num_cat=0
split_feature=30 31 32 3 30 1 2 32 18 5 18 30 31 1 26 30 12 20 13 31 1 31 31 11 31 0 26 22 13 13
split_gain=4178.46 2429.08 1217.48 1756.18 728.372 723.976 607.217 874.362 1246.15 944.138 435.74 434.77 416.243 309.75 287.883 238.548 171.135 162.576 143.334 140.812 132.408 130.28 125.576 110.435 127.545 108.2 204.558 98.9007 85.7855 80.0834
threshold=2.5000000000000004 4.5000000000000009 1.0000000180025095e-35 66.498068613342824 1.5000000000000002 870.24441298932777 153.21441185535693 1.0000000180025095e-35 52.968036529680376 0.29922751133381059 48.303797468354439 3.5000000000000004 4.5000000000000009 856.95995580506462 138.41016225534955 3.5000000000000004 0.24999999999999997 365.76610879813637 949.21875000000011 4.5000000000000009 1123.5611457842676 4.5000000000000009 4.5000000000000009 1.722077661550115 4.5000000000000009 65.223777314503749 28.630932282885055 1.6227773319279053 792.96875000000011 863.28125000000011
decision_type=2 2 2 2 2 2 2 2 2 2 2 2 2 2 2 2 2 2 2 2 2 2 2 2 2 2 2 2 2 2
left_child=4 15 3 5 12 11 7 8 14 13 18 28 -1 22 -6 17 -15 29 -11 -20 -16 -18 27 -12 -25 26 -10 -9 -3 -2
right_child=1 2 -4 -5 6 -7 -8 9 25 10 23 -13 -14 16 20 -17 21 -19 19 -21 -22 -23 -24 24 -26 -27 -28 -29 -30 -31
leaf_value=0.072676735892594921 -0.025737006146390136 -0.10773602670729143 0.072676735892594921 0.071054796927142158 0.039696453075610039 0.065154986797747505 -0.1010396230084058 -0.098673597156072823 0.044969345700109117 0.020342240620249169 0.044148044225217703 0.072687132147851718 -0.10986194677113036 -0.057412873121539677 -0.068215615048739228 -0.10986194677113036 0.07367976140196672 0.032714010180333396 0.07589346276982871 -0.085196389241064541 0.074028674836898067 -0.10971465906938199 0.075244703640837671 -0.091803810709539441 0.07453724171689996 -0.10828994543393577 -0.088040550454504374 0.017575087431622914 -0.039369794064635096 -0.104010659294858
leaf_weight=32.628966093063354 60.057841807603836 375.89900118112564 1355.3900783658028 481.8441166728735 249.08949096500874 97.448965102434158 459.01262673735619 359.35069876909256 33.525588184595108 63.234934419393539 641.17160360515118 40.149072855710983 728.61516094207764 77.071457847952843 123.68894699215889 293.01110887527466 67.505709439516068 57.053521350026131 15.057549104094504 136.92873188853264 18.853774547576904 11.305581808090208 11.459865286946295 32.469262331724167 17.864500448107719 718.59807568788528 209.78007210791111 19.277834102511406 52.264824166893959 71.67790649831295
leaf_count=152 192 876 6314 2230 1027 443 1107 883 135 241 2723 187 1676 226 358 674 311 228 67 356 86 26 48 87 81 1669 541 69 164 180
internal_value=0 0.0208436 0.0413878 0.000906278 -0.0579946 -0.0588373 -0.0477266 -0.0390062 -0.0679201 -0.012066 0.0192125 -0.0846383 -0.102038 -0.0640122 0.00726746 -0.0816216 -0.00443588 -0.037791 -0.0429173 -0.0692369 -0.0494013 0.0473716 -0.0878194 0.0385496 -0.0327659 -0.0985322 -0.0697128 -0.0927548 -0.0993907 -0.068326
internal_weight=0 2884.8 2403 1047.61 4026.49 565.762 3265.25 2806.23 1353.54 1452.7 906.727 468.313 761.244 545.971 391.632 481.8 155.883 188.789 215.221 151.986 142.543 78.8113 390.088 691.505 50.3338 961.904 243.306 378.629 428.164 131.736
internal_count=23357 11488 10214 3900 11869 1670 10041 8934 3816 5118 3555 1227 1828 1563 1471 1274 563 600 664 423 444 337 1000 2891 168 2345 676 952 1040 372
is_linear=0
shrinkage=0.05


Tree=4
num_leaves=31
num_cat=0
split_feature=30 31 32 3 1 30 8 32 18 5 18 30 31 0 0 30 31 20 0 28 0 12 31 27 22 20 18 31 0 0
split_gain=3763.12 2211.12 1141.41 1610.34 651.469 647.95 537.248 788.823 1126.1 867.394 409.218 388.686 371.21 274.733 219.411 212.885 160.931 146.613 127.815 204.779 121.811 117.152 108.98 97.1536 96.3163 83.3009 95.0023 86.7314 105.506 76.9017
threshold=2.5000000000000004 4.5000000000000009 1.0000000180025095e-35 66.498068613342824 870.24441298932777 1.5000000000000002 148.20688910452378 1.0000000180025095e-35 52.247315808959655 0.29922751133381059 45.989672977624799 3.5000000000000004 4.5000000000000009 67.527447300736839 64.164718641959581 3.5000000000000004 4.5000000000000009 236.59219327371088 67.316128263130054 0.69690065959405689 54.752092777564947 0.2166666666666667 4.5000000000000009 1.2788025681497803 1.6227773319279053 29.98525221590091 48.919182083739038 4.5000000000000009 72.962675202649635 74.919319503293721
decision_type=2 2 2 2 2 2 2 2 2 2 2 2 2 2 2 2 2 2 2 2 2 2 2 2 2 2 2 2 2 2
left_child=5 15 3 4 11 12 7 8 14 13 -11 29 -1 16 20 17 21 -2 19 -10 -7 -9 24 -22 -15 27 -27 28 -12 -3
right_child=1 2 -4 -5 -6 6 -8 9 18 10 25 -13 -14 22 -16 -17 -18 -19 -20 -21 23 -23 -24 -25 -26 26 -28 -29 -30 -31
leaf_value=0.07108712570746907 -0.074923127863382705 -0.032714094081853634 0.07108712570746907 0.069435226312262704 0.063485918384552031 0.063777339012013365 -0.094251432262554474 -0.041119156672727392 -0.00033733051754345319 -0.069067764863424003 0.069872966748666263 0.071096582558479782 -0.10363378423470374 -0.090570459969349815 -0.099269156701222619 -0.10363378423470374 -0.10723905799377145 0.01359559550024318 -0.10314061527943008 -0.089901263160737696 0.034144875529537731 0.06824450968469313 0.072776416299151367 -0.040185995908947877 0.020857538834487478 -0.0016150458109030043 0.047308307701591251 0.064400541691174318 -0.076259784504616068 -0.10099408487725257
leaf_weight=31.713858962059021 105.64797315001488 46.180338710546494 1317.3770097792149 468.76082859933376 95.070905178785324 131.69165354967117 478.17230518162251 38.015239238739014 88.750769972801208 113.81195156276226 16.213978037238121 39.023443251848221 733.6309586763382 382.75896035134792 38.472263902425766 295.02820175886154 27.030153095722198 83.948401570320129 690.05078816413879 227.19538505375385 96.521167322993279 68.81428274512291 11.261136367917059 80.72722689807415 20.428316950798035 120.68025366961956 558.26330289244652 27.041627585887909 51.849721059203148 385.24949623644352
leaf_count=152 278 147 6314 2230 443 599 1146 115 317 307 72 187 1676 941 96 674 62 322 1581 559 387 323 48 263 74 440 2436 121 154 893
internal_value=0 0.0201811 0.040222 0.000908785 -0.0558925 -0.0549827 -0.0452837 -0.0368899 -0.0642791 -0.0110791 0.0194571 -0.0800169 -0.0963938 -0.0605256 0.0133312 -0.077068 0.00175075 -0.0357293 -0.0910811 -0.0647423 0.0273533 0.0293275 -0.0806398 0.000291113 -0.0849247 0.0324733 0.0386123 -0.011352 -0.0414484 -0.0936854
internal_weight=0 2836.29 2351.66 1034.29 565.524 4033.1 3267.75 2789.58 1353.41 1436.17 887.861 470.453 765.345 548.308 347.412 484.625 133.86 189.596 1006 315.946 308.94 106.83 414.448 177.248 403.187 774.049 678.944 95.1053 68.0637 431.43
internal_count=23357 11488 10214 3900 1670 11869 10041 8895 3802 5093 3530 1227 1828 1563 1345 1274 500 600 2457 876 1249 438 1063 650 1015 3223 2876 347 226 1040
is_linear=0
shrinkage=0.05


Tree=5
num_leaves=31
num_cat=0
split_feature=30 31 32 3 1 30 4 32 18 5 18 30 31 0 5 30 0 20 12 0 26 0 24 12 18 27 11 11 13 31
split_gain=3402.55 2020.12 1071.14 1481.02 589.233 582.712 481.595 676.285 1001.12 721.033 430.063 349.627 333.469 211.355 193.485 192.304 190.158 133.874 126.859 116.51 184.032 113.053 107.567 106.989 95.6969 88.6525 82.4045 81.5672 78.3247 89.2475
threshold=2.5000000000000004 4.5000000000000009 1.0000000180025095e-35 66.498068613342824 870.24441298932777 1.5000000000000002 218.54983280141798 1.0000000180025095e-35 52.247315808959655 0.20393831009543098 45.989672977624799 3.5000000000000004 4.5000000000000009 64.164718641959581 0.42110722865254424 3.5000000000000004 70.079249487235714 365.76610879813637 0.24999999999999997 67.316128263130054 28.630932282885055 54.752092777564947 43.543950893154374 0.24999999999999997 49.230769230769226 1.2788025681497803 2.1983005909588722 1.5853537664666548 925.78125000000011 4.5000000000000009
decision_type=2 2 2 2 2 2 2 2 2 2 2 2 2 2 2 2 2 2 2 2 2 2 2 2 2 2 2 2 2 2
left_child=5 15 3 4 11 12 7 8 13 16 -11 -3 -1 21 22 17 18 -2 -9 20 -10 -7 -12 -24 28 -23 -26 -25 -16 -30
right_child=1 2 -4 -5 -6 6 -8 9 19 10 14 -13 -14 -15 24 -17 -18 -19 -20 -21 -22 25 23 27 26 -27 -28 -29 29 -31
leaf_value=0.069640140714835083 -0.061089740099343627 -0.088783099599399368 0.069640140714835083 0.067951267811347596 0.061929080614224113 0.062121150068661549 -0.092558603043368076 -0.06423058165248384 0.027802927546140079 -0.066515503137069568 0.053845456458735633 0.069648766200313503 -0.098353824454557898 -0.093758752600128545 0.040160625007076872 -0.098353824454557898 -0.09182072966333503 0.030846854666156238 0.056514313675979692 -0.09786610397944559 -0.077551021929857994 0.033097695639916096 -0.058370731275956579 0.02477733991698965 0.051480192316935708 -0.037801344397512274 -0.072251136776043251 -0.073556029015755656 0.073457287089461795 -0.061440108387941741
leaf_weight=30.777898192405701 133.72371886670589 432.45642875134945 1278.4976920187473 455.38735640048981 92.649501651525497 128.52319052815437 427.77666845917702 46.352510243654251 49.030805125832558 164.11400453746319 53.118662253022194 37.872094020247459 734.32829236984253 41.563230007886887 68.364090263843536 295.30863308906555 287.05927135050297 56.254044726490974 40.989414229989052 691.302594602108 268.11403527855873 96.046721175312996 121.74482469260693 110.80213670432568 468.33285574615002 81.507837757468224 13.854557454586027 26.046272054314613 15.423499554395674 59.798864394426346
leaf_count=152 372 1040 6314 2230 443 599 1009 129 190 434 225 187 1676 102 290 674 689 228 190 1582 686 389 365 444 2100 263 40 70 71 174
internal_value=0 0.0195823 0.0391663 0.000908092 -0.0533225 -0.0523265 -0.0431098 -0.0356407 -0.0611313 -0.012221 0.00815231 -0.0760257 -0.0915959 0.012038 0.0212235 -0.0731086 -0.0721652 -0.0338665 -0.00756521 -0.0863549 -0.0612632 0.0264045 -0.0109608 -0.0242729 0.0372552 0.000550925 0.0479251 0.00606161 0.00142398 -0.0337809
internal_weight=0 2782.15 2296.86 1018.37 562.978 4024.97 3259.87 2832.09 1356.09 1476 1101.6 470.329 765.106 347.641 937.486 485.286 374.401 189.978 87.3419 1008.45 317.145 306.078 311.712 258.593 625.774 177.555 482.187 136.848 143.586 75.2224
internal_count=23357 11488 10214 3900 1670 11869 10041 9032 3811 5221 4213 1227 1828 1353 3779 1274 1008 600 319 2458 876 1251 1104 879 2675 652 2140 514 535 245
is_linear=0
shrinkage=0.05


Tree=6
num_leaves=31
num_cat=0
split_feature=30 31 32 21 30 1 2 32 13 5 18 0 30 31 11 1 30 12 13 5 27 20 6 1 31 31 0 31 11 31
split_gain=3086.06 1850.66 1006.43 1365.25 529.33 517.476 433.206 620.41 901.038 663.035 354.098 314.981 311.333 301.39 250.496 229.465 175.908 124.67 124.315 161.837 96.2107 95.554 109.432 95.3847 88.6773 76.6466 75.2096 79.2595 64.447 59.908
threshold=2.5000000000000004 4.5000000000000009 1.0000000180025095e-35 573.22490681842771 1.5000000000000002 870.24441298932777 155.97643316828524 1.0000000180025095e-35 1074.2187500000002 0.2567187381772908 45.989672977624799 64.405477292616126 3.5000000000000004 4.5000000000000009 0.88044783711842789 849.5770384933777 3.5000000000000004 0.24999999999999997 902.34375000000011 0.3755685911289493 1.2435606054165904 66.690429709773767 0.75944608356333887 660.13388526193592 4.5000000000000009 4.5000000000000009 75.693682967587748 4.5000000000000009 1.1019649868090149 4.5000000000000009
decision_type=2 2 2 2 2 2 2 2 2 2 2 2 2 2 2 2 2 2 2 2 2 2 2 2 2 2 2 2 2 2
left_child=4 16 3 5 13 12 7 8 11 15 29 14 -3 -1 -6 24 18 -17 19 -2 -16 23 -23 -12 -9 -19 -25 -28 -21 -11
right_child=1 2 -4 -5 6 -7 -8 9 -10 10 21 -13 -14 -15 20 17 -18 25 -20 28 -22 22 -24 26 -26 -27 27 -29 -30 -31
leaf_value=0.068318938793318879 -0.07411138861905385 -0.08579488938481683 0.068318938793318879 0.064356525780871865 -0.071549272746806891 0.060902960924877882 -0.087743840829629161 -0.085109652639766983 0.051228381749015776 0.077854483624883578 0.047201538720193482 -0.091434388502298347 0.068326376377825057 -0.093824434961717496 0.046615107242590922 -0.050019571148596502 -0.093824434961717496 0.070672082819760895 -0.079817350361861827 0.072441564381958187 -0.029032375343452911 0.043204592513131253 -0.016160036472011998 0.015736564175466948 0.078971338197444507 -0.1007370518111864 -0.073671529302149666 0.073008533741184642 -0.055860371338162886 -0.066478643677015212
leaf_weight=29.828519701957703 42.733893111348152 421.95443400740623 1239.0610091984272 459.00333625078201 221.58223843574524 84.421695366501808 432.23576857149601 337.40863692760468 164.86054620146751 7.5757897645235053 63.366052776575089 800.86569242179394 35.526095524430275 731.3517998456955 85.40016958117485 65.562251150608063 294.11164265871048 52.943983614444733 79.514023095369339 56.120020881295204 82.76685431599617 532.19859021902084 90.887378573417664 62.80794370174408 8.440461188554762 7.4379912018775931 76.632251217961311 10.467819213867186 11.855207249522207 140.96052707731724
leaf_count=152 113 1010 6314 2294 585 415 1023 815 755 33 273 1866 181 1676 352 187 674 261 214 240 265 2356 326 252 37 17 225 49 33 364
internal_value=0 0.0190336 0.0381964 0.000906406 -0.0499452 -0.0528373 -0.0411413 -0.0339784 -0.0583243 -0.011324 0.0120232 -0.0734937 -0.0738265 -0.0874705 -0.0366288 -0.0600627 -0.069591 -0.00227891 -0.0321227 0.00213278 0.00938365 0.0246576 0.0345453 -0.00422939 -0.0811052 0.0495575 -0.0259692 -0.0560433 0.0500651 -0.0591172
internal_weight=0 2724.3 2239.97 1000.91 4005.58 541.902 3244.4 2812.17 1355.48 1456.69 984.896 1190.61 457.481 761.18 389.749 471.793 484.335 125.944 190.223 110.709 168.167 836.36 623.086 213.274 345.849 60.382 149.908 87.1001 67.9752 148.536
internal_count=23357 11488 10214 3900 11869 1606 10041 9018 3823 5195 3878 3068 1191 1828 1202 1317 1274 465 600 386 617 3481 2682 799 852 278 526 274 273 397
is_linear=0
shrinkage=0.05


Tree=7
num_leaves=31
num_cat=0
split_feature=30 31 32 3 1 30 4 32 18 5 18 31 30 26 5 30 0 24 1 12 24 12 18 13 5 13 26 9 0 31
split_gain=2806.31 1699.68 946.739 1265.67 494.535 485.056 393.595 555.836 828.477 596.932 353.39 273.8 269.096 216.917 167.221 162.346 152.853 117.036 106.989 105.846 95.1689 91.6343 87.7219 87.3251 82.747 77.2888 156.569 77.1432 71.8789 71.2761
threshold=2.5000000000000004 4.5000000000000009 1.0000000180025095e-35 66.498068613342824 801.33275425497482 1.5000000000000002 218.54983280141798 1.0000000180025095e-35 52.968036529680376 0.20393831009543098 45.989672977624799 4.5000000000000009 3.5000000000000004 124.25498684596097 0.42110722865254424 3.5000000000000004 70.079249487235714 37.290315537394456 1123.5611457842676 0.24999999999999997 43.543950893154374 0.24999999999999997 49.230769230769226 863.28125000000011 0.39521354933726072 933.59375000000011 40.561510333999493 19.029135339126913 63.36783681082747 4.5000000000000009
decision_type=2 2 2 2 2 2 2 2 2 2 2 2 2 2 2 2 2 2 2 2 2 2 2 2 2 2 2 2 2 2
left_child=5 15 3 4 12 11 7 8 13 16 -11 -1 -3 -7 20 17 19 -2 -15 -9 -12 -22 28 24 -19 -10 -27 -24 29 -16
right_child=1 2 -4 -5 -6 6 -8 9 25 10 14 -13 -14 18 22 -17 -18 23 -20 -21 21 -23 27 -25 -26 26 -28 -29 -30 -31
leaf_value=0.067109207567672996 0.042907588935676526 -0.087882120421262408 0.067109207567672996 0.065385177221332788 0.032200954808978187 0.038417687399660429 -0.084149289885392511 -0.057803769775404336 -0.088318543278217143 -0.05987215672692342 0.051719283881808992 -0.089899630458159435 0.067117609656181659 -0.054400182418154489 0.070908899793010752 -0.089899630458159435 -0.083262880783856269 -0.072271009117846591 0.068795682173985503 0.053711690870524187 -0.053855637709744698 0.0058067134318265448 -0.037818248480523335 -0.087016479799439592 0.038734472627511424 0.024569740312398433 -0.076489067417722489 0.050407966045497493 0.040737477186152962 -0.052913632487227816
leaf_weight=28.872156023979187 42.220944538712502 383.24781869351864 1199.3341653645039 428.74965779483318 139.88766770064831 223.48644614219666 425.43738524615765 46.896069824695587 733.38118372857571 164.31340597569942 51.758044436573982 725.26210522651672 30.208997771143913 135.7679590433836 14.130280897021292 291.6626843214035 286.53089843690395 29.897314935922623 20.252089023590088 38.953362122178078 122.72908100485802 135.31350319087505 26.254189789295197 79.697012171149254 38.287911236286163 48.635062098503113 180.81667166948318 440.24969886243343 62.404558256268501 65.475289568305016
leaf_count=152 174 895 6314 2230 616 972 1009 129 1711 434 225 1676 159 393 68 674 689 78 102 190 365 514 89 200 148 185 448 2051 273 194
internal_value=0 0.0185305 0.037302 0.000901455 -0.0490627 -0.0477905 -0.0393435 -0.0325291 -0.0557336 -0.0111215 0.00766099 -0.0838885 -0.0765571 0.00683331 0.0197446 -0.0664667 -0.0657282 -0.030515 -0.0384088 -0.00720469 -0.0101583 -0.0225696 0.0349685 -0.0514774 -0.00993833 -0.0803947 -0.0550684 0.0454427 0.000560745 -0.0309347
internal_weight=0 2663.19 2181.43 982.094 553.344 3976.92 3222.79 2797.35 1342.34 1455.01 1082.63 754.134 413.457 379.506 918.315 481.766 372.38 190.103 156.02 85.8494 309.801 258.043 608.514 147.882 68.1852 962.833 229.452 466.504 142.01 79.6056
internal_count=23357 11488 10214 3900 1670 11869 10041 9032 3811 5221 4213 1828 1054 1467 3779 1274 1008 600 495 319 1104 879 2675 426 226 2344 633 2140 535 262
is_linear=0
shrinkage=0.05


Tree=8
num_leaves=31
num_cat=0
split_feature=30 31 32 3 1 30 4 32 18 5 18 30 31 0 30 1 28 0 31 22 1 12 1 20 26 6 18 1 13 1
split_gain=2558.07 1564.79 891.507 1170.99 457.015 447.612 357.98 506.416 759.311 544.539 361.84 263.631 249.831 188.351 150.794 147.05 218.332 139.109 132.949 107.065 90.8374 89.1419 77.5787 103.891 74.6578 71.1883 65.2459 64.5998 63.4396 59.591
threshold=2.5000000000000004 4.5000000000000009 1.0000000180025095e-35 66.498068613342824 870.24441298932777 1.5000000000000002 218.54983280141798 1.0000000180025095e-35 50.863157894736851 0.29922751133381059 45.989672977624799 3.5000000000000004 4.5000000000000009 67.527447300736839 3.5000000000000004 889.45018531332551 0.71047940944351451 55.938358836356443 4.5000000000000009 1.2708264487495766 601.68083635947266 0.2166666666666667 660.13388526193592 64.985259691089254 212.08004970991107 0.75944608356333887 54.470824949698191 994.37090456647934 792.96875000000011 839.78988603988603
decision_type=2 2 2 2 2 2 2 2 2 2 2 2 2 2 2 2 2 2 2 2 2 2 2 2 2 2 2 2 2 2
left_child=5 14 3 4 11 12 7 8 17 13 27 28 -1 18 19 -10 -17 -7 21 29 -15 26 -12 -24 -19 -25 -9 -11 -3 -2
right_child=1 2 -4 -5 -6 6 -8 9 15 10 22 -13 -14 20 -16 16 -18 24 -20 -21 -22 -23 23 25 -26 -27 -28 -29 -30 -31
leaf_value=0.065998697374886658 -0.0092634648615677242 -0.085047165192364993 0.065998697374886658 0.064214938978598077 0.058370420559509487 0.058302269840592919 -0.080601979676156094 0.092024213903682706 -0.086384506027585226 0.026948665636290683 0.059509402710419226 0.066095384976692789 -0.086469173995237597 0.043981531483042485 -0.086469173995237597 0.0069384835781067704 -0.074319625572269024 0.014126107957634779 -0.096083897734692336 0.024230373326974086 -0.071646931618762968 0.064930158226628232 -0.023420144961194808 0.03886395412219823 -0.060911241867508251 -0.01161688295282674 -0.065305887701225501 -0.068074503918118659 -0.026965373348094963 -0.080961728529096166
leaf_weight=27.914349555969238 44.89431120455265 372.31057490408421 1159.547388792038 415.08184103667736 86.383330494165421 130.04961270093918 422.03537298738956 8.4124140441417676 684.48744568228722 20.57648029923439 153.25958603620529 34.445144578814507 716.5479564666748 17.747418776154518 288.15830707550049 123.71350981295109 249.14409202337265 91.316701203584671 27.088260412216187 62.966002210974693 395.57733704149723 63.584019273519516 113.43940535187721 390.36779169738293 52.038240179419518 85.055352598428726 30.414839908480644 136.78770516812801 53.807790100574493 81.755124285817146
leaf_count=152 146 876 6314 2230 443 641 1009 34 1602 69 732 187 1676 73 674 448 628 349 62 248 990 323 407 1790 143 311 81 349 164 206
internal_value=0 0.0180665 0.0364762 0.000892328 -0.0471637 -0.0458368 -0.0377014 -0.0311723 -0.053417 -0.0106483 0.0132181 -0.0669576 -0.0807522 -0.0501962 -0.0636829 -0.0726225 -0.0473583 0.0208571 0.00242204 -0.0290547 -0.0666821 0.0284773 0.0278213 0.019574 -0.0131127 0.0298327 -0.0312183 -0.0556496 -0.0777129 -0.0555463
internal_weight=0 2599.35 2121.58 962.029 546.947 3939.56 3195.1 2773.06 1330.75 1442.31 899.486 460.564 744.462 542.824 477.774 1057.35 372.858 273.405 129.5 189.615 413.325 102.411 742.122 588.863 143.355 475.423 38.8273 157.364 426.118 126.649
internal_count=23357 11488 10214 3900 1670 11869 10041 9032 3811 5221 3658 1227 1828 1563 1274 2678 1076 1133 500 600 1063 438 3240 2508 492 2101 115 418 1040 352
is_linear=0
shrinkage=0.05


Tree=9
num_leaves=31
num_cat=0
split_feature=30 31 32 3 1 30 2 32 1 5 18 28 30 31 18 30 5 1 12 20 24 6 12 11 12 11 27 27 1 31
split_gain=2337.33 1443.48 839.677 1085.88 418.884 415.373 328.009 469.967 698.318 510.486 244.89 241.219 240.906 228.828 183.184 141.38 139.191 128.316 115.086 100.075 83.5057 82.9258 79.1679 67.6221 67.1082 63.13 61.2123 60.6734 59.9327 70.9042
threshold=2.5000000000000004 4.5000000000000009 1.0000000180025095e-35 66.498068613342824 870.24441298932777 1.5000000000000002 155.97643316828524 1.0000000180025095e-35 959.41252554931032 0.20393831009543098 46.547164266823408 0.71678066911762339 3.5000000000000004 4.5000000000000009 50.863157894736851 3.5000000000000004 0.42110722865254424 835.67414899157291 0.24999999999999997 425.33452458294471 43.543950893154374 0.76938100961538469 0.24999999999999997 1.5853537664666548 0.24999999999999997 2.1983005909588722 1.1321987751871194 1.3483281778160252 994.37090456647934 4.5000000000000009
decision_type=2 2 2 2 2 2 2 2 2 2 2 2 2 2 2 2 2 2 2 2 2 2 2 2 2 2 2 2 2 2
left_child=5 15 3 4 12 13 7 8 -7 17 28 27 -3 -1 26 19 20 -9 -19 24 -12 25 -22 -24 -2 -18 -13 -10 -11 -30
right_child=1 2 -4 -5 -6 6 -8 9 11 10 16 14 -14 -15 -16 -17 21 18 -20 -21 22 -23 23 -25 -26 -27 -28 -29 29 -31
leaf_value=0.064976896018937191 -0.076275127171258741 -0.074689311522406876 0.064976896018937191 0.06312807555234505 0.057111671105776529 -0.078738814613570893 -0.077215438827712798 -0.078450207658947849 0.054876630047012015 0.0055450136148544483 0.050062238010924166 0.06672853339024272 0.065066011311141189 -0.083448213229243007 -0.069675739510383736 -0.083448213229243007 0.042270783432304122 -0.057713293625272326 0.052719958438880811 0.034686158069707214 -0.049386196232046202 -0.022573245438990711 0.023753787250890602 -0.065964368326512354 -0.0055254087775553108 -0.067716789664812801 -0.014100530297679352 0.00063942441510263443 0.078208888136678506 -0.073458984345413411
leaf_weight=26.959849953651428 86.49312561750412 421.3331491202116 1119.8979776799679 401.46247287094593 83.935256153345108 842.34786342084408 422.36587533354759 269.60923583805561 140.89455851912498 41.053630486130714 50.362746044993401 38.247652783989906 33.270358860492706 705.63606524467468 157.29601657390594 283.77011215686798 501.47543343901634 56.200480446219444 40.660430714488029 48.038062915205956 122.58432130515575 60.280076935887337 107.61609886586666 26.095049560070038 54.722837761044502 13.394805207848547 60.431784585118294 81.32721446454525 8.2299725413322431 121.01759128272533
leaf_count=152 219 1040 6314 2230 443 2052 1023 654 641 133 225 187 187 1676 403 674 2364 151 203 202 364 215 443 70 179 39 227 313 36 298
internal_value=0 0.0176424 0.0357301 0.000886087 -0.0455132 -0.0440627 -0.0362018 -0.0298776 -0.0513434 -0.00989517 0.00780689 -0.00308619 -0.0644613 -0.0779861 -0.0361739 -0.0611248 0.0184079 -0.0607165 -0.0113554 -0.0276527 -0.00879727 0.0329131 -0.0203633 0.0062444 -0.0488588 0.0394094 0.0172284 0.0350273 -0.0470844 -0.0638014
internal_weight=0 2532.92 2059.9 940.001 538.539 3894.09 3161.49 2739.12 1320.55 1418.58 1052.11 478.197 454.604 732.596 255.975 473.024 881.809 366.47 96.8609 189.254 306.658 575.15 256.295 133.711 141.216 514.87 98.6794 222.222 170.301 129.248
internal_count=23357 11488 10214 3900 1670 11869 10041 9018 3823 5195 4187 1771 1227 1828 817 1274 3720 1008 354 600 1102 2618 877 513 398 2403 414 954 467 334
is_linear=0
shrinkage=0.05


Tree=10
num_leaves=31
num_cat=0
split_feature=30 31 32 3 30 1 14 32 13 5 18 0 30 31 26 5 30 0 14 0 31 13 5 24 12 12 11 31 20 27
split_gain=2138.85 1333.93 791.75 1007.96 387.871 382.789 305.247 448.601 639.019 445.662 298.556 228.056 219.181 210.284 188.971 167.549 133.123 119.428 117.366 101.517 95.2095 94.0576 129.076 91.598 83.2878 77.0753 72.0604 74.9417 66.4453 61.4906
threshold=2.5000000000000004 4.5000000000000009 1.0000000180025095e-35 64.80352592920876 1.5000000000000002 870.24441298932777 632.81250000000011 1.0000000180025095e-35 1074.2187500000002 0.20393831009543098 48.303797468354439 64.405477292616126 3.5000000000000004 4.5000000000000009 40.561510333999493 0.44870264977663549 3.5000000000000004 70.079249487235714 382.81250000000006 62.994659222719342 4.5000000000000009 902.34375000000011 0.3755685911289493 43.543950893154374 0.24999999999999997 0.24999999999999997 1.7544927070647622 4.5000000000000009 3.5285089189607599 1.4973567129114329
decision_type=2 2 2 2 2 2 2 2 2 2 2 2 2 2 2 2 2 2 2 2 2 2 2 2 2 2 2 2 2 2
left_child=4 16 3 5 13 12 7 8 11 17 19 14 -3 -1 -6 23 21 24 -16 20 -11 22 -2 -12 -9 -25 -17 -28 -27 -20
right_child=1 2 -4 -5 6 -7 -8 9 -10 10 15 -13 -14 -15 18 26 -18 -19 29 -21 -22 -23 -24 25 -26 28 27 -29 -30 -31
leaf_value=0.064034687875987331 -0.063700308758215599 -0.072179386531193684 0.064034687875987331 0.061636053156491337 0.038580705458248626 0.055830385128228723 -0.079031644809940113 -0.049402963463620303 0.046833622619443314 0.073438886281007518 0.052211876394367585 -0.07846694539135024 0.064116973621339765 -0.080770303194310708 -0.073141950265019406 0.046456508713395253 -0.080770303194310708 -0.07382483790818116 0.013108348393424353 0.03916806384569043 -0.056022417011590143 -0.067662594616638302 0.047713554447899209 -0.04613832088534759 0.052079588893925582 -0.0760568281728254 -0.086778513120114295 0.063933199675059435 0.020752727236731605 -0.062539608644758118
leaf_weight=26.012716054916382 42.886326432228088 413.8032863587141 1080.5545340180397 391.49436619877815 76.797665357589722 80.786229401826859 346.75577932596207 46.507833659648895 149.97852036356926 15.086366042494772 56.716425284743309 778.56400336325169 31.760804712772369 692.89954829216003 193.6637002825737 433.62639907002449 278.6481477022171 279.40909303724766 84.789337515830994 37.95251128077507 242.18594497442245 79.645014479756355 66.006465703248978 126.86564259231091 35.766532629728317 20.632295653223991 21.28428740799427 13.46751920878887 125.75232522189617 39.32055239379406
leaf_count=152 113 1032 6314 2244 317 439 843 128 734 71 263 1897 185 1676 490 2119 674 689 311 165 642 214 273 381 189 53 57 67 519 106
internal_value=0 0.017247 0.0350289 0.000881231 -0.0424165 -0.0443076 -0.0347987 -0.0292782 -0.0503488 -0.0101209 0.00579182 -0.062773 -0.0624639 -0.0755308 -0.0318059 0.0216788 -0.0588159 -0.0582339 -0.0488165 -0.0371696 -0.0484308 -0.0263685 0.00383433 -0.00561154 -0.0052862 -0.0176135 0.0409045 -0.0283725 0.00710783 -0.0108585
internal_weight=0 2465.59 1998.4 917.845 3844.03 526.35 3125.12 2778.37 1323.11 1455.25 1093.57 1173.14 445.564 718.912 394.571 798.345 467.186 361.683 317.774 295.225 257.272 188.538 108.893 329.967 82.2744 273.25 468.378 34.7518 146.385 124.11
internal_count=23357 11488 10214 3900 11869 1656 10041 9198 3855 5343 4337 3121 1217 1828 1224 3459 1274 1006 907 878 713 600 386 1216 317 953 2243 124 572 417
is_linear=0
shrinkage=0.05


Tree=11
num_leaves=31
num_cat=0
split_feature=30 31 32 21 30 1 14 32 13 5 18 13 30 31 11 5 30 1 12 13 31 24 26 24 1 31 31 11 31 13
split_gain=1961.75 1234.59 747.16 938.32 363.335 343.363 280.997 412.433 585.231 407.742 272.461 216.831 199.943 193.806 169.084 155.229 125.946 110.562 98.5722 94.2952 93.9179 90.388 89.4864 83.8755 73.7162 122.49 94.6066 66.7101 67.6369 64.7618
threshold=2.5000000000000004 4.5000000000000009 1.0000000180025095e-35 573.22490681842771 1.5000000000000002 870.24441298932777 632.81250000000011 1.0000000180025095e-35 1074.2187500000002 0.20393831009543098 48.303797468354439 917.96875000000011 3.5000000000000004 4.5000000000000009 0.85510233373283973 0.44870264977663549 3.5000000000000004 835.67414899157291 0.24999999999999997 949.21875000000011 4.5000000000000009 37.290315537394456 40.561510333999493 43.543950893154374 886.05031008159744 4.5000000000000009 4.5000000000000009 1.7336010556831438 4.5000000000000009 863.28125000000011
decision_type=2 2 2 2 2 2 2 2 2 2 2 2 2 2 2 2 2 2 2 2 2 2 2 2 2 2 2 2 2 2
left_child=4 16 3 5 13 12 7 8 11 17 19 -6 -3 -1 -13 23 21 -9 -19 -11 -21 -2 -16 -12 25 -25 -26 -17 -29 -23
right_child=1 2 -4 -5 6 -7 -8 9 -10 10 15 14 -14 -15 22 27 -18 18 -20 20 -22 29 -24 24 26 -27 -28 28 -30 -31
leaf_value=0.063164147707104004 0.040469230578105579 -0.07067441209054097 0.063164147707104004 0.058983366680628806 -0.077502626645988393 0.055256495963313917 -0.076302835677261024 -0.072675173149140529 0.04546158603886645 0.018037834581983599 0.050629625156494731 -0.062118291147049254 0.063242105131183182 -0.078382695228278607 0.047497007559336848 0.045217646929730355 -0.078382695228278607 -0.052090999286003317 0.052047277086682553 0.071811706459958921 -0.058969937253324584 -0.0075622231302221177 -0.022733832610129776 -0.046048199301994497 0.049530097583416165 0.075911090976582524 -0.12469408660440387 -0.079145133520017993 0.062674466382679248 -0.074226935377425876
leaf_weight=25.076392889022827 40.991833060979843 400.03282316029072 1041.6601625084877 391.15765336155891 715.34908808767796 74.005279034376144 341.33527927100658 263.10429973900318 146.85972818732262 64.059678450226784 55.593247830867767 233.73024272918701 29.960161462426186 678.66462051868439 66.885455906391144 423.24536587297916 272.92360037565231 55.564559161663055 38.446160927414894 14.66741670668125 214.24378049373627 67.547379955649376 140.91370752453804 179.38955228030682 61.313196778297424 23.256930634379387 8.926310718059538 22.363924652338028 13.471501901745794 79.082620784640312
leaf_count=152 174 1010 6314 2294 1765 415 843 654 734 249 263 616 181 1676 288 2114 674 150 202 71 558 226 452 549 275 107 22 60 69 200
internal_value=0 0.0168789 0.0343756 0.00087552 -0.0409224 -0.0442225 -0.0335221 -0.0281954 -0.0485608 -0.00972692 0.00558122 -0.0604964 -0.0613437 -0.073339 -0.0329436 0.0208947 -0.0567033 -0.0560451 -0.00950312 -0.0355843 -0.0505901 -0.0251674 -0.000128247 -0.00534783 -0.0167517 -0.0320514 0.027389 0.0396716 -0.0258313 -0.0435168
internal_weight=0 2397.36 1936.82 895.156 3786.46 503.998 3082.72 2741.38 1303.74 1437.65 1080.53 1156.88 429.993 703.741 441.529 787.56 460.545 357.115 94.0107 292.971 228.911 187.622 207.799 328.479 272.886 202.646 70.2395 459.081 35.8354 146.63
internal_count=23357 11488 10214 3900 11869 1606 10041 9198 3855 5343 4337 3121 1191 1828 1356 3459 1274 1006 352 878 629 600 740 1216 953 656 297 2243 129 426
is_linear=0
shrinkage=0.05


Tree=12
num_leaves=31
num_cat=0
split_feature=30 31 32 3 1 30 4 32 18 5 18 26 31 30 30 5 1 12 20 0 31 22 9 1 11 28 12 11 31 27
split_gain=1801.85 1144.09 705.782 875.696 347.668 341.759 260.808 358.198 571.304 386.101 217.416 182.57 179.079 176.381 119.701 112.334 100.235 88.5236 84.5565 81.5822 152.362 77.9082 77.6577 76.1934 66.5445 66.0473 64.457 72.2459 63.3406 58.0684
threshold=2.5000000000000004 4.5000000000000009 1.0000000180025095e-35 66.498068613342824 801.33275425497482 1.5000000000000002 218.54983280141798 1.0000000180025095e-35 53.708920187793439 0.20393831009543098 45.989672977624799 134.14294528292922 4.5000000000000009 3.5000000000000004 3.5000000000000004 0.45257047571104964 835.67414899157291 0.24999999999999997 236.59219327371088 65.612818065257514 4.5000000000000009 1.2460544934996938 135.00467652857481 1123.5611457842676 1.7336010556831438 0.83296498015121623 0.28333333333333338 1.3498526054624138 4.5000000000000009 1.2435606054165904
decision_type=2 2 2 2 2 2 2 2 2 2 2 2 2 2 2 2 2 2 2 2 2 2 2 2 2 2 2 2 2 2
left_child=5 14 3 4 13 12 7 8 11 16 -11 -7 -1 -3 18 21 -9 -18 -2 20 -17 26 -22 -13 -21 -6 29 -28 -26 -12
right_child=1 2 -4 -5 25 6 -8 9 -10 10 15 23 -14 -15 -16 19 17 -19 -20 24 22 -23 -24 -25 28 -27 27 -29 -30 -31
leaf_value=0.06235836617504207 -0.05389362889804377 -0.074328213536001761 0.06235836617504207 0.060335228744870906 0.047916492486311774 0.029722000164307372 -0.07001259382567393 -0.070150073292913506 -0.069267860598984918 -0.047175456644138442 -0.00063193453363990094 -0.049580664250911059 -0.076242944129176579 0.062363833744504875 -0.076242944129176579 0.066358953105256718 -0.049916580169667463 0.049027161978589029 0.013899426412210127 0.051488332801975734 -0.10355499093549073 0.044835357509684287 -0.0077251465615270978 0.065196519699193961 -0.075618795889124998 -0.041075071586195444 0.043096152731594894 -0.046961507701560913 0.066704724871450155 -0.059361583813438125
leaf_weight=24.153779625892639 104.43985570967197 356.48032334446907 1003.3352931439877 362.10920743644238 102.3650711774826 246.71769776940346 398.88638041913509 259.04867669939995 850.57026921212673 159.16891467571259 70.369068145751953 147.87128555774689 663.21623921394348 25.272716090083122 266.71106517314911 60.396286949515343 55.792270615696907 38.004705905914307 82.194144010543823 321.98985588550568 28.465068355202675 61.566965043544769 82.162953078746796 16.026373907923698 20.989374965429306 26.182376757264137 69.427860304713249 32.785969585180283 12.457217067480086 104.72753041982651
leaf_count=152 278 895 6314 2230 516 1098 1009 654 2204 434 250 419 1676 159 674 326 151 203 322 1682 84 291 303 90 56 100 309 99 67 312
internal_value=0 0.0165311 0.0337591 0.000867748 -0.0413304 -0.0395353 -0.0323305 -0.0266338 -0.0458861 -0.00900527 0.0065305 0.00254801 -0.0713726 -0.065279 -0.0547509 0.0164091 -0.0541143 -0.00982651 -0.0240374 0.0308625 0.00248745 -0.00604493 -0.0323826 -0.0383574 0.0445157 0.0297908 -0.0173411 0.0142094 -0.0226103 -0.0357589
internal_weight=0 2329.09 1875.74 872.41 510.3 3724.79 3037.42 2638.54 1261.19 1377.35 1024.51 410.615 687.37 381.753 453.345 865.338 352.846 93.797 186.634 526.461 171.024 338.877 110.628 163.898 355.436 128.547 277.31 102.214 33.4466 175.097
internal_count=23357 11488 10214 3900 1670 11869 10041 9032 3811 5221 4213 1607 1828 1054 1274 3779 1008 354 600 2518 713 1261 387 509 1805 616 970 408 123 562
is_linear=0
shrinkage=0.05


Tree=13
num_leaves=31
num_cat=0
split_feature=30 31 32 3 30 0 14 32 13 5 18 28 31 30 5 1 30 1 0 12 13 5 26 31 3 24 1 31 31 28
split_gain=1655.31 1061.46 667.096 815.664 323.347 321.871 245.478 351.091 523.888 344.748 223.751 187.585 165.849 163.143 133.382 115.225 114.293 94.3659 84.0965 82.4267 79.07 113.272 78.0892 77.2573 76.0962 70.7449 64.2657 110.208 85.2996 60.0233
threshold=2.5000000000000004 4.5000000000000009 1.0000000180025095e-35 66.498068613342824 1.5000000000000002 74.919319503293721 632.81250000000011 1.0000000180025095e-35 964.84375000000011 0.20393831009543098 48.303797468354439 0.76224736721378206 4.5000000000000009 3.5000000000000004 0.44870264977663549 1104.6071878896068 3.5000000000000004 835.67414899157291 62.994659222719342 0.24999999999999997 902.34375000000011 0.3455323441930041 40.561510333999493 4.5000000000000009 36.984135057852292 43.543950893154374 886.05031008159744 4.5000000000000009 4.5000000000000009 0.83296498015121623
decision_type=2 2 2 2 2 2 2 2 2 2 2 2 2 2 2 2 2 2 2 2 2 2 2 2 2 2 2 2 2 2
left_child=4 16 3 5 12 29 7 8 -6 17 18 22 -1 -7 25 24 20 -9 23 -19 21 -2 -10 -11 -13 -12 27 -27 -28 -3
right_child=1 2 -4 -5 6 13 -8 9 11 10 14 15 -14 -15 -16 -17 -18 19 -20 -21 -22 -23 -24 -25 -26 26 28 -29 -30 -31
leaf_value=0.061611251604666344 -0.063474619051031786 0.045986985223547605 0.061611251604666344 0.059498996530875328 -0.069602848266409306 -0.072320794769450844 -0.071922828450294768 -0.067837117948048628 0.060362094049593945 0.070719002687398322 0.047789491724930536 -0.067887365087455687 -0.074316471905402567 0.061616325478251847 0.03743503204516567 0.053389865300895949 -0.074316471905402567 -0.047387605354657567 0.037794103504081404 0.049294795603723081 -0.061110843867820425 0.04354713546764457 0.0037027816813945827 -0.04939039338320711 0.022168704400259368 -0.042426792031349317 0.048094789176141399 0.074428265226552784 -0.11652499519061672 -0.038593236446728268
leaf_weight=23.247302055358887 38.671121448278427 101.13162118196487 965.68069195747375 349.1669414639473 803.84653359651566 348.0954518020153 328.99105636775494 254.59992171823978 100.00238056480885 14.190096244215963 53.450587332248688 147.98042175173759 646.80349850654602 24.324371576309204 439.81689849495888 29.360200986266136 260.11071479320526 55.120538666844368 37.365295708179474 36.738540574908257 78.434643805027008 68.551692113280296 155.17381580173969 236.94460067152977 27.876025900244713 180.00137339532375 60.024187311530113 22.724294811487198 9.0563273131847364 26.465215295553207
leaf_count=152 101 518 6314 2230 2096 893 843 654 494 71 263 389 1676 159 2243 162 674 150 165 202 214 285 611 642 103 549 275 107 22 100
internal_value=0 0.0162045 0.0331846 0.000858096 -0.0382036 -0.0400915 -0.0311753 -0.0261437 -0.0452443 -0.00889585 0.00533219 -0.00271412 -0.0696005 -0.0635728 0.0194817 -0.0383034 -0.0529269 -0.052163 -0.032191 -0.00872 -0.0229596 0.00494853 0.0259073 -0.0426037 -0.0536121 -0.00479502 -0.0151357 -0.0293281 0.0265134 0.028444
internal_weight=0 2260.63 1814.86 849.184 3663.31 500.017 2993.26 2664.27 1264.24 1400.03 1053.57 460.393 670.051 372.42 765.074 205.217 445.768 346.459 288.5 91.8591 185.657 107.223 255.176 251.135 175.856 325.257 271.806 202.726 69.0805 127.597
internal_count=23357 11488 10214 3900 11869 1670 10041 9198 3855 5343 4337 1759 1828 1052 3459 654 1274 1006 878 352 600 386 1105 713 492 1216 953 656 297 618
is_linear=0
shrinkage=0.05


Tree=14
num_leaves=31
num_cat=0
split_feature=30 31 32 3 30 1 14 32 1 5 18 26 18 31 30 5 30 1 13 31 22 24 12 11 0 24 31 20 27 21
split_gain=1523.32 986.07 630.933 760.504 306.507 298.644 228.391 324.125 487.224 316.985 204.462 167.395 154.781 153.911 150.759 123.064 109.291 87.624 79.5065 76.714 76.604 64.9152 64.512 58.5939 58.5151 56.2558 56.2297 56.1339 56.1243 53.7669
threshold=2.5000000000000004 4.5000000000000009 1.0000000180025095e-35 66.498068613342824 1.5000000000000002 801.33275425497482 632.81250000000011 1.0000000180025095e-35 959.41252554931032 0.20393831009543098 48.303797468354439 40.561510333999493 50.863157894736851 4.5000000000000009 3.5000000000000004 0.44870264977663549 3.5000000000000004 882.30794270833337 949.21875000000011 4.5000000000000009 1.4736615124731702 42.371201383884106 0.24999999999999997 1.7544927070647622 53.103569277974572 52.086554599477303 4.5000000000000009 3.5285089189607599 1.1321987751871194 42.088064765274979
decision_type=2 2 2 2 2 2 2 2 2 2 2 2 2 2 2 2 2 2 2 2 2 2 2 2 2 2 2 2 2 2
left_child=4 16 3 5 13 14 7 8 -6 17 18 -10 24 -1 -3 21 20 -9 -11 -20 -2 -12 -23 -17 -13 -7 -25 -24 -26 -19
right_child=1 2 -4 -5 6 25 -8 9 11 10 15 12 -14 -15 -16 23 -18 29 19 -21 -22 22 27 26 28 -27 -28 -29 -30 -31
leaf_value=0.06091745530034668 -0.040748984684852142 -0.070289913865079656 0.06091745530034668 0.058710989946546902 -0.067551677679841424 -0.06420317451010317 -0.069852771479568365 -0.063157670363743632 0.052114700212277598 0.018437813121427522 0.047311888765531648 0.064397768457289756 -0.052004166827244486 -0.072574881175775763 0.060922181361796779 0.041586376244082679 -0.072574881175775763 0.046238811792672682 0.069341204833190437 -0.052556744115832423 0.033343693909796732 -0.040238338280907483 -0.068578075705949773 -0.075252847823406965 0.058083700579838839 0.039859727155066908 0.05943085883027787 0.021096794723145282 -0.020980063161349708 -0.04245260963932429
leaf_weight=22.358962416648865 137.61381395161152 340.63487070798874 928.77953091263771 336.48249751329422 787.67989438772202 14.715388014912604 321.98141774535179 272.09099920094013 107.07783597707748 63.505398780107498 50.803044214844704 43.979511812329292 177.71348091959953 629.64347541332245 23.394984692335129 398.23240973055363 253.2098463177681 32.866743534803391 13.759371995925902 208.32357566058636 46.731717854738235 127.2389453202486 20.29094272851944 21.654978469014168 29.24307844042778 110.58516278862953 12.068371817469595 124.69133241474628 96.566525265574455 35.594032853841782
leaf_count=152 402 895 6314 2230 2098 52 843 719 530 249 256 254 494 1676 159 2119 674 173 71 558 198 382 53 57 134 564 67 525 345 114
internal_value=0 0.0158991 0.0326454 0.000848156 -0.036977 -0.0389406 -0.0301102 -0.0252324 -0.0437637 -0.00856431 0.00513915 -0.00254467 -0.0193871 -0.0679971 -0.0618574 0.0187706 -0.0512531 -0.0504357 -0.030897 -0.0450044 -0.0219664 -0.0045731 -0.0142561 0.0362275 0.0147522 0.0276385 -0.0270544 0.00854638 -0.00260255 0.00012649
internal_weight=0 2192.15 1754.59 825.813 3597.36 489.33 2945.36 2623.38 1242.26 1381.12 1040.57 454.58 347.503 652.002 364.03 754.98 437.555 340.552 285.588 222.083 184.346 323.024 272.221 431.956 169.789 125.301 33.7234 144.982 125.81 68.4608
internal_count=23357 11488 10214 3900 11869 1670 10041 9198 3855 5343 4337 1757 1227 1828 1054 3459 1274 1006 878 629 600 1216 960 2243 733 616 124 578 479 287
is_linear=0
shrinkage=0.05


Tree=15
num_leaves=31
num_cat=0
split_feature=30 31 32 21 30 1 14 32 13 5 18 28 30 31 5 30 27 1 1 31 21 20 27 20 12 11 24 11 0 1
split_gain=1403.37 916.368 597.122 711.267 291.303 265.826 213.024 299.731 454.059 291.198 187.652 162.789 148.183 143.095 124.001 105.294 98.8267 82.9575 80.1812 87.3134 73.8618 71.9007 70.4831 64.9482 61.2646 74.3555 59.7895 59.5854 58.2633 55.4995
threshold=2.5000000000000004 4.5000000000000009 1.0000000180025095e-35 573.22490681842771 1.5000000000000002 870.24441298932777 632.81250000000011 1.0000000180025095e-35 964.84375000000011 0.20393831009543098 48.919182083739038 0.76224736721378206 3.5000000000000004 4.5000000000000009 0.44870264977663549 3.5000000000000004 1.0419923936821878 835.67414899157291 947.46565736478726 4.5000000000000009 38.626417434165731 425.33452458294471 1.2740447865722986 266.75993295414543 0.28333333333333338 1.4090420118123743 32.697910073091826 1.7336010556831438 54.752092777564947 1123.5611457842676
decision_type=2 2 2 2 2 2 2 2 2 2 2 2 2 2 2 2 2 2 2 2 2 2 2 2 2 2 2 2 2 2
left_child=4 15 3 5 13 12 7 8 -6 17 18 22 -3 -1 24 21 -13 -9 -11 -20 -19 -2 -10 29 26 -26 -12 -16 -24 -18
right_child=1 2 -4 -5 6 -7 -8 9 11 10 14 16 -14 -15 27 -17 23 20 19 -21 -22 -23 28 -25 25 -27 -28 -29 -30 -31
leaf_value=0.060272245426654152 -0.039155685630843984 -0.063314126922563746 0.060272245426654152 0.055718085894598902 -0.065710902225508919 0.052207472619538675 -0.067950190419598044 -0.063806385692159587 0.050727972567790991 0.034452189466176168 0.059546854003027255 0.050704563214675029 0.060468339950070761 -0.070994546684418569 0.043424104503438941 -0.070994546684418569 -0.068500502178238457 0.052130191054435629 0.067926491367333974 -0.045850657722463467 -0.041988275111866501 0.032852251885721322 0.048641318280456758 0.035491857532597593 0.048229214179452785 -0.044683864244519145 -0.029977102213779017 -0.025416241130593431 -0.025645071459976715 0.063346602993274922
leaf_weight=21.490391492843628 137.16746887564659 369.03681583702564 892.69955188035965 340.14783072471619 769.41112694144249 67.437898769974709 314.63361188769341 245.02664478123188 126.35775969922543 44.534604921936989 20.774670198559761 28.233589172363281 25.87303364276886 611.92537558078766 365.61251239478588 246.08454841375351 144.28944580256939 32.808739006519318 18.100585624575615 246.43330588936806 57.16716705262661 46.391271874308586 38.37641653418541 19.591887265443802 85.782435387372971 28.749258875846863 182.3885383605957 34.390312761068344 84.539830476045609 8.4489241242408735
leaf_count=152 398 1010 6314 2294 2096 415 843 654 619 208 111 138 181 1676 2013 674 386 171 97 687 181 202 215 79 408 86 599 128 271 51
internal_value=0 0.0156059 0.0321364 0.000837891 -0.0358266 -0.0395373 -0.0291079 -0.024373 -0.0423801 -0.00825037 0.00495653 -0.00247476 -0.0552044 -0.066541 0.0189836 -0.0496167 -0.0360073 -0.0487289 -0.0276162 -0.0380655 -0.007669 -0.0209569 0.0245053 -0.0502137 -0.00433693 0.0249066 -0.0208227 0.0375055 -0.00245167 -0.0612072
internal_weight=0 2124.84 1695.2 802.496 3529.07 462.348 2895.65 2581.02 1219.25 1361.77 1026.77 449.838 394.91 633.416 717.698 429.643 200.564 335.003 309.068 264.534 89.9759 183.559 249.274 172.33 317.695 114.532 203.163 400.003 122.916 152.738
internal_count=23357 11488 10214 3900 11869 1606 10041 9198 3855 5343 4337 1759 1191 1828 3345 1274 654 1006 992 784 352 600 1105 516 1204 494 710 2141 486 437
is_linear=0
shrinkage=0.05


Tree=16
num_leaves=31
num_cat=0
split_feature=30 31 32 10 0 30 4 18 32 31 31 18 26 31 30 24 30 12 13 5 28 11 8 27 28 12 0 25 27 32
split_gain=1294.08 852.354 565.568 665.581 279.513 277.527 200.303 279.03 429.651 451.004 218.929 176.567 140.484 133.259 132.332 107.453 101.561 95.2824 71.83 99.9417 66.6491 60.8254 53.3971 53.311 50.2 48.8784 152.632 58.4193 47.9364 47.7598
threshold=2.5000000000000004 4.5000000000000009 1.0000000180025095e-35 11180.483069774067 74.919319503293721 1.5000000000000002 218.54983280141798 55.254658385093173 1.0000000180025095e-35 4.5000000000000009 4.5000000000000009 59.53846153846154 40.561510333999493 4.5000000000000009 3.5000000000000004 61.294985574830115 3.5000000000000004 0.28333333333333338 902.34375000000011 0.39218621580368668 0.76513517407846776 1.2630626886321381 128.35967164387083 1.4807138599190128 0.83296498015121623 0.24999999999999997 79.110323256383239 138.19187438293605 1.1321987751871194 1.0000000180025095e-35
decision_type=2 2 2 2 2 2 2 2 2 2 2 2 2 2 2 2 2 2 2 2 2 2 2 2 2 2 2 2 2 2
left_child=5 16 3 4 24 13 7 10 -9 11 -7 -10 29 -1 -6 17 18 23 19 -2 22 -21 -14 -13 -3 -17 -27 -28 -22 -12
right_child=1 2 -4 -5 14 6 -8 8 9 -11 12 15 20 -15 -16 25 -18 -19 -20 21 28 -23 -24 -25 -26 26 27 -29 -30 -31
leaf_value=0.05967140942967028 -0.049091792567634587 0.043936258022508529 0.05967140942967028 0.057716594538602201 -0.067721170218334167 0.059701772675112334 -0.062642973398431265 -0.065711043944072289 0.029270961753774478 0.061797651417260346 0.04952709401598774 -0.045004705800209099 0.0043629209456769562 -0.069555727561601485 0.059683584361188195 -0.076918654079271301 -0.069555727561601485 0.059112219554383227 -0.056761919308386893 0.071324552428939203 -0.0038074435998962453 -0.064887387362403084 -0.02820383949872414 0.060250101577821673 -0.035379928804917506 0.050962837865332428 -0.075499337675209832 -0.01109510500188627 -0.054558924899302433 -0.11671169428496285
leaf_weight=20.642896175384521 45.558596879243851 98.539758190512657 857.49504244327545 309.85013414919376 324.54870782792568 123.91326308250427 366.82054331898689 687.87332862615585 102.21702742576599 165.07958249747753 101.77024006843567 90.630344733595848 308.57880887389183 593.81358015537262 21.747057303786278 163.89357833564281 238.80092662572861 40.741514638066292 76.945952147245407 50.264741688966751 63.634423241019249 9.7925878912210447 212.57197923958302 13.871484473347662 25.012681990861893 37.571507811546326 141.08405664563179 46.919852584600449 173.07074624300003 4.512094944715499
leaf_count=152 126 539 6314 2208 897 665 1009 1919 485 936 517 283 1313 1676 160 433 674 203 214 234 246 26 679 77 96 186 368 184 527 11
internal_value=0 0.0153266 0.0316487 0.000829988 -0.0366849 -0.0347416 -0.0281596 -0.0230548 -0.0367184 -0.0118518 -0.00245156 -0.0309403 -0.011364 -0.0652143 -0.0597203 -0.0424504 -0.0480926 -0.00574699 -0.0200176 0.00675222 -0.0189137 0.0491147 -0.00892072 -0.0310333 0.027879 -0.0561381 -0.0410399 -0.0594261 -0.0409152 0.0424696
internal_weight=0 2058.56 1637.19 779.698 469.848 3459.21 2844.75 2477.93 1489.88 802.009 988.052 636.929 864.138 614.456 346.296 534.712 421.363 145.243 182.562 105.616 757.856 60.0573 521.151 104.502 123.552 389.469 225.575 188.004 236.705 106.282
internal_count=23357 11488 10214 3900 1692 11869 10041 9032 5074 3155 3958 2219 3293 1828 1057 1734 1274 563 600 386 2765 260 1992 360 635 1171 738 552 773 528
is_linear=0
shrinkage=0.05


Tree=17
num_leaves=31
num_cat=0
split_feature=30 31 32 3 30 0 14 32 1 5 1 31 13 31 30 26 1 30 14 31 13 18 31 22 13 5 31 27 2 13
split_gain=1192.45 794.207 535.823 622.5 265.751 245.309 190.173 258.848 410.385 252.769 185.932 197.384 141.249 124.286 121.283 104.439 103.244 97.5202 79.9378 69.2136 65.8576 85.5544 72.29 73.5922 65.2199 92.5689 65.0827 63.7891 58.3485 72.5764
threshold=2.5000000000000004 4.5000000000000009 1.0000000180025095e-35 66.498068613342824 1.5000000000000002 74.919319503293721 632.81250000000011 1.0000000180025095e-35 959.41252554931032 0.2567187381772908 997.58806008806016 4.5000000000000009 1074.2187500000002 4.5000000000000009 3.5000000000000004 40.561510333999493 849.5770384933777 3.5000000000000004 382.81250000000006 4.5000000000000009 667.96875000000011 60.476190476190489 4.5000000000000009 0.63891007520076426 902.34375000000011 0.3455323441930041 4.5000000000000009 1.1199830292651651 122.69700257321968 878.90625000000011
decision_type=2 2 2 2 2 2 2 2 2 2 2 2 2 2 2 2 2 2 2 2 2 2 2 2 2 2 2 2 2 2
left_child=4 17 3 5 13 -3 7 8 -6 16 20 -12 15 -1 -7 -10 19 24 -17 -9 -11 28 23 -23 25 -2 27 -18 -22 -30
right_child=1 2 -4 -5 6 14 -8 9 12 10 11 -13 -14 -15 -16 18 26 -19 -20 -21 21 22 -24 -25 -26 -27 -28 -29 29 -31
leaf_value=0.059111180803655877 -0.055906103179157868 0.025214340220279519 0.059111180803655877 0.056643493333875694 -0.062636602866601943 -0.065721306778239327 -0.06482908439747298 -0.059285759105505403 0.039287647786516992 0.048199487717762196 0.058172721756847873 -0.062496637495037533 0.041350925668589313 -0.068241743609881028 0.059116349504743586 -0.057298049269392803 0.053987598788183079 -0.068241743609881028 0.0010827250554016068 0.084781676900417297 0.046384767716442919 -0.05112322243809482 0.065261424760518577 0.02874993421827526 -0.054292746728263966 0.042110354246643389 -0.086214518917169608 -0.029459604116193569 0.049066618892774402 -0.012451241398695315
leaf_weight=19.81750476360321 37.820233345031738 120.33280131220818 823.20871761441231 300.82317668199539 734.95573519170284 314.65252406895161 299.95437534153461 292.87657821178436 59.317788347601891 152.32466599345207 43.498166471719742 153.40540006756783 133.5071673989296 575.45059275627136 20.737998574972153 150.83007986843586 52.992461740970612 231.41628849506378 95.924646690487862 8.5810710638761503 167.87290181219578 112.01646144688129 22.636625647544861 38.836747094988823 76.435997202992439 66.344026476144791 17.876909404993057 40.331085011363029 70.536314487457275 149.6861218214035
leaf_count=152 101 618 6314 2230 2098 893 843 815 273 837 244 413 734 1676 159 414 280 674 336 37 920 367 131 189 214 285 43 139 387 541
internal_value=0 0.0150712 0.0311955 0.000819999 -0.0336655 -0.0360291 -0.0272114 -0.0226943 -0.0397795 -0.00753181 0.00717624 -0.0358394 -0.00156356 -0.0640019 -0.0580023 -0.0202826 -0.0399952 -0.0467524 -0.0346028 -0.0551848 0.0190404 0.0111313 -0.0180575 -0.0305601 -0.0192166 0.00652228 0.00118299 0.0179247 0.0241795 0.00725267
internal_weight=0 1991.77 1579.76 756.547 3393.23 455.723 2797.96 2498.01 1174.54 1323.47 910.813 196.904 439.58 595.268 335.391 306.073 412.658 412.017 246.755 301.458 713.91 561.585 173.49 150.853 180.6 104.164 111.2 93.3235 388.095 220.222
internal_count=23357 11488 10214 3900 11869 1670 10041 9198 3855 5343 4029 657 1757 1828 1052 1023 1314 1274 750 852 3372 2535 687 556 600 386 462 419 1848 928
is_linear=0
shrinkage=0.05


Tree=18
num_leaves=31
num_cat=0
split_feature=30 31 32 21 30 1 14 32 0 5 1 31 1 27 30 31 30 31 13 1 22 28 9 1 12 22 15 22 4 21
split_gain=1101.4 740.258 508.101 582.941 254.076 237.529 178.306 240.145 387.582 235.628 148.988 208.064 148.11 124.756 124.214 116.075 94.0036 75.8359 193.9 164.693 83.6673 75.2973 73.173 66.4838 65.1793 63.4165 51.3927 50.638 49.708 62.8114
threshold=2.5000000000000004 4.5000000000000009 1.0000000180025095e-35 841.729236461082 1.5000000000000002 870.24441298932777 632.81250000000011 1.0000000180025095e-35 64.405477292616126 0.20393831009543098 997.58806008806016 4.5000000000000009 1073.5994562298604 1.0896381727550675 3.5000000000000004 4.5000000000000009 3.5000000000000004 4.5000000000000009 878.90625000000011 791.42832720455044 0.91099961361335691 0.68504938258220782 137.7834972604781 835.67414899157291 0.24999999999999997 1.1963347543115048 0.059758526921863307 1.3299947851609601 24.217072699929478 73.665489585329567
decision_type=2 2 2 2 2 2 2 2 2 2 2 2 2 2 2 2 2 2 2 2 2 2 2 2 2 2 2 2 2 2
left_child=4 16 3 5 15 14 7 8 12 23 17 -12 13 -6 -3 -1 25 19 -19 20 -11 -15 -20 -9 -25 -2 -23 -7 29 -21
right_child=1 2 -4 -5 6 27 -8 9 -10 10 11 -13 -14 21 -16 -17 -18 18 22 28 -22 26 -24 24 -26 -27 -28 -29 -30 -31
leaf_value=0.058588216347771074 -0.040477423299846355 -0.058519832597974865 0.058588216347771074 0.055621103966412393 0.041408499526969469 0.061119681910496139 -0.063294415507044829 -0.058983447495497665 -0.064108699922818299 -0.044995202775866723 0.056259506368104187 -0.061245463370047305 0.042864699448313094 0.00063182609733251113 0.058862959140877635 -0.067038415301011997 -0.067038415301011997 0.058618196746531515 -0.061790535382397073 0.054802123306173192 0.033283855323695391 -0.059946653656008535 0.011079250130668929 -0.041997909694874859 0.046888484326938061 0.02176196367942938 0.019493260701658549 -0.13319823372061942 0.049897952109643068 -0.077451712600306893
leaf_weight=19.014985084533691 115.53721091151237 350.43432991206646 789.87247252464294 292.06714750826359 66.45827554166317 63.951729312539101 292.06661051511765 228.96680277585983 649.30178192257881 175.20510010421276 49.586176931858063 156.79716917872429 120.02195355296135 104.716593131423 24.08642390370369 556.95963680744171 223.98018807172775 237.64878857135773 51.772884458303452 16.725492477416992 42.395288124680519 186.7799628674984 102.96527916193008 53.34244766831398 33.625058010220528 63.377638906240463 22.850053980946541 3.5381572246551505 134.29047112166882 19.380268320441246
leaf_count=152 338 1035 6314 2230 283 432 843 654 1897 575 281 428 692 386 189 1676 674 1425 171 86 198 518 388 150 202 262 79 14 735 50
internal_value=0 0.0148209 0.0307557 0.000807776 -0.0326993 -0.0354112 -0.0263641 -0.0219667 -0.038617 -0.00726644 0.00476596 -0.0330134 -0.00556801 -0.020833 -0.0509706 -0.062891 -0.0454528 0.0147572 0.0302565 -0.000917362 -0.029744 -0.0339919 -0.0133018 -0.0448476 -0.00763093 -0.0184301 -0.0512876 0.0509326 0.035895 -0.016187
internal_weight=0 1926.85 1523.95 734.078 3320.87 442.011 2744.9 2452.83 1150.13 1302.7 986.767 206.383 500.827 380.805 374.521 575.975 402.895 780.384 392.387 387.997 217.6 314.347 154.738 315.934 86.9675 178.915 209.63 67.4899 170.396 36.1058
internal_count=23357 11488 10214 3900 11869 1670 10041 9198 3855 5343 4337 709 1958 1266 1224 1828 1274 3628 1984 1644 773 983 559 1006 352 600 597 446 871 136
is_linear=0
shrinkage=0.05


Tree=19
num_leaves=31
num_cat=0
split_feature=30 31 32 10 30 0 14 32 13 5 1 31 11 31 30 30 0 31 27 1 13 1 13 5 13 20 11 12 18 6
split_gain=1018.54 689.989 481.874 545.739 243.123 233.022 167.323 222.998 366.766 218.121 172.059 152.403 149.297 108.542 107.085 91.25 85.0653 83.3999 78.0876 73.0215 69.1672 61.1092 59.3987 83.814 56.6576 57.8887 55.7489 53.5144 49.4478 45.8456
threshold=2.5000000000000004 4.5000000000000009 1.0000000180025095e-35 11180.483069774067 1.5000000000000002 74.919319503293721 632.81250000000011 1.0000000180025095e-35 917.96875000000011 0.29922751133381059 997.58806008806016 4.5000000000000009 0.72126011549485025 4.5000000000000009 3.5000000000000004 3.5000000000000004 67.527447300736839 4.5000000000000009 1.2384695774654433 601.68083635947266 1105.4687500000002 1123.5611457842676 902.34375000000011 0.39218621580368668 652.34375000000011 59.075580709613753 1.2056415483681293 0.2166666666666667 54.470824949698191 0.7746071806561915
decision_type=2 2 2 2 2 2 2 2 2 2 2 2 2 2 2 2 2 2 2 2 2 2 2 2 2 2 2 2 2 2
left_child=4 15 3 5 13 -3 7 8 -6 16 24 -12 21 -1 -7 22 17 27 -14 -18 -20 -10 23 -2 -11 -26 -25 28 -9 -27
right_child=1 2 -4 -5 6 14 -8 9 12 10 11 -13 18 -15 -16 -17 19 -19 20 -21 -22 -23 -24 26 25 29 -28 -29 -30 -31
leaf_value=0.058099503269863711 -0.044353907780848092 0.025918188916351188 0.058099503269863711 0.055837601417957405 -0.064885290380320912 -0.063678465190233791 -0.061857510592857039 0.090326023247312856 -0.053237645692923191 0.053101055298962141 0.056943139682808265 -0.057874008048036177 0.035609771067472713 -0.065933636159639014 0.058108956089777314 -0.065933636159639014 0.053723466911369915 -0.080624561287055876 -0.026014599777898374 -0.051394514927159324 0.048885046307500554 0.061791436400015644 -0.051348511614575966 0.070138358380523388 -0.021467572778683552 0.029336754196968913 -0.056020258672738459 0.059440300745541103 -0.048769534206679163 -0.0134934124126473
leaf_weight=18.235898852348328 44.669995293021202 118.18577671796083 757.50964048504829 275.89174044132233 586.45000939071178 298.55647812783718 284.11108562350273 8.1269045919179899 165.5801894813776 111.98379372060299 36.226112574338913 142.9401497989893 168.37413595616817 538.4467533826828 19.210926175117493 216.53526955842972 17.371328800916672 23.217545509338379 153.90917456150055 337.50928841531277 38.542305484414101 12.411456912755964 75.263228476047516 47.264523923397064 94.680537268519402 352.10517078638077 10.748048216104506 50.70923638343811 29.885603040456772 75.958015397191048
leaf_count=152 126 635 6314 2208 1765 897 843 34 484 671 217 400 794 1676 160 674 73 58 493 990 238 81 214 231 356 1873 29 323 81 267
internal_value=0 0.0145796 0.0303425 0.000804955 -0.0317934 -0.0340223 -0.0255693 -0.0212842 -0.0375237 -0.00701574 0.00861156 -0.0346588 -0.00774318 -0.0618705 -0.0563157 -0.0441338 -0.0342617 0.0037416 0.0107421 -0.046249 -0.0110144 -0.0452166 -0.0176065 0.00712544 0.0208256 0.0139115 0.0467648 0.0258193 -0.0190315 0.0217367
internal_weight=0 1863.84 1469.35 711.845 3246.77 435.953 2690.09 2405.98 1125.27 1280.71 813.894 179.166 538.817 556.683 317.767 394.481 466.82 111.939 360.826 354.881 192.451 177.992 177.946 102.683 634.728 522.744 58.0126 88.7217 38.0125 428.063
internal_count=23357 11488 10214 3900 11869 1692 10041 9198 3855 5343 3784 617 2090 1828 1057 1274 1559 496 1525 1063 731 565 600 386 3167 2496 260 438 115 2140
is_linear=0
shrinkage=0.05


Tree=20
num_leaves=31
num_cat=0
split_feature=30 31 32 8 13 30 4 18 32 31 31 1 12 26 30 0 31 30 5 21 24 6 27 12 13 27 13 1 22 19
split_gain=941.625 644.145 457.39 512.182 237.368 233.321 157.848 225.536 337.288 352.171 169.643 138.236 192.485 113.167 108.113 101.995 101.613 87.9304 66.0664 60.2394 57.2534 50.8535 50.0045 67.2845 46.3338 48.9069 41.0808 55.8507 40.8125 40.5493
threshold=2.5000000000000004 4.5000000000000009 1.0000000180025095e-35 82.967589386920693 792.96875000000011 1.5000000000000002 218.54983280141798 55.254658385093173 1.0000000180025095e-35 4.5000000000000009 4.5000000000000009 782.91667851860291 0.24999999999999997 40.561510333999493 3.5000000000000004 97.895942936610794 4.5000000000000009 3.5000000000000004 0.32774114430461182 208.93222216072954 37.290315537394456 0.7746071806561915 1.2693401050432997 0.28333333333333338 863.28125000000011 1.5969781847541737 1199.2187500000002 870.24441298932777 0.84983264552245019 16.056490445778596
decision_type=2 2 2 2 2 2 2 2 2 2 2 2 2 2 2 2 2 2 2 2 2 2 2 2 2 2 2 2 2 2
left_child=5 17 3 4 14 16 7 10 -9 11 -7 15 18 -12 -3 22 -1 20 -13 -15 -2 -21 -10 28 25 -22 27 -6 -24 -8
right_child=1 2 -4 -5 26 6 29 8 9 -11 13 12 -14 19 -16 -17 -18 -19 -20 21 24 -23 23 -25 -26 -27 -28 -29 -30 -31
leaf_value=0.057642334977176427 0.037392490883774519 -0.064060498928975904 0.057642334977176427 0.057120081540203885 -0.006477476195724495 0.056366887244684388 -0.060492825456035286 -0.060466860645929647 -0.065402985817259618 0.058812268400668145 0.040857914655322632 -0.053229625181900858 0.059866326157736752 -0.042860214496614014 0.057669633381653262 0.041745572481204515 -0.06491695982534966 -0.06491695982534966 0.04030257951039657 8.5655308640727903e-06 -0.034220652765390568 -0.035389837098149649 -0.073494124659268675 0.030388320626791632 -0.059275663447491633 0.055919187497890648 -0.13443127362078219 0.060173554429516364 0.016259500688835832 0.031860013894079525
leaf_weight=17.480609595775604 38.006509929895401 285.55250664055347 726.13532228767872 254.64401673525572 58.574330344796181 112.30050732195377 319.08370630443096 617.73713101446629 247.03459373116493 147.03918448090553 99.621070191264153 101.35487179458141 90.967191770672798 161.8732635229826 19.484395816922188 30.884376540780067 520.00304889678955 209.11817121505737 23.201722696423531 433.72782598435879 41.035667970776558 132.44087342917919 55.136696428060532 36.703113228082657 72.894562929868698 23.761238619685173 3.9514093250036231 67.825808860361576 16.442872419953346 12.345499560236929
leaf_count=152 174 885 6314 2132 210 665 965 1919 716 936 528 291 538 544 169 136 1676 674 128 1796 120 425 164 170 200 106 16 488 76 44
internal_value=0 0.0143547 0.0299422 0.000792748 -0.0321512 -0.0309051 -0.0247872 -0.0201508 -0.0331182 -0.0105553 -0.00129891 -0.0275062 0.00457434 -0.00912323 -0.0562849 -0.045409 -0.060931 -0.0430091 -0.035807 -0.0159624 -0.016934 -0.008272 -0.0529845 -0.0246533 -0.0319296 -0.00116608 0.0243243 0.0292872 -0.0528764 -0.0570527
internal_weight=0 1800.98 1416.17 690.032 435.388 3175.38 2637.89 2306.47 1366.5 748.765 939.964 601.725 215.524 827.663 305.037 386.202 537.484 384.816 124.557 728.042 175.698 566.169 355.317 108.283 137.691 64.7969 130.352 126.4 71.5796 331.429
internal_count=23357 11488 10214 3900 1768 11869 10041 9032 5074 3155 3958 2219 957 3293 1054 1262 1828 1274 419 2765 600 2221 1126 410 426 226 714 698 240 1009
is_linear=0
shrinkage=0.05


Tree=21
num_leaves=31
num_cat=0
split_feature=30 31 32 8 30 13 14 32 13 5 28 1 31 30 31 30 27 1 20 31 13 0 22 9 0 12 13 24 1 1
split_gain=869.83 602.081 433.833 480.551 224.738 222.152 150.542 191.316 343.853 191.491 134.955 123.477 167.158 100.965 95.2258 84.8326 74.9515 72.7273 70.085 63.4646 172.793 139.179 68.8033 65.3409 56.2477 89.8253 53.4747 52.3662 48.2893 53.687
threshold=2.5000000000000004 4.5000000000000009 1.0000000180025095e-35 82.967589386920693 1.5000000000000002 792.96875000000011 632.81250000000011 1.0000000180025095e-35 917.96875000000011 0.20393831009543098 0.78046303110348336 997.58806008806016 4.5000000000000009 3.5000000000000004 4.5000000000000009 3.5000000000000004 1.2740447865722986 1123.5611457842676 266.75993295414543 4.5000000000000009 878.90625000000011 73.523874093833527 0.97396462602470613 137.7834972604781 77.159364271888592 0.24999999999999997 1089.8437500000002 37.290315537394456 1200.3008248850094 870.24441298932777
decision_type=2 2 2 2 2 2 2 2 2 2 2 2 2 2 2 2 2 2 2 2 2 2 2 2 2 2 2 2 2 2
left_child=4 15 3 5 14 13 7 8 -6 24 16 19 -13 -3 -1 27 -10 18 -12 21 -21 -11 -23 -22 25 -9 -18 -2 29 -7
right_child=1 2 -4 -5 6 28 -8 9 10 11 17 12 -14 -15 -16 -17 26 -19 -20 20 23 22 -24 -25 -26 -27 -28 -29 -30 -31
leaf_value=0.057214265222423261 0.036006724381975372 -0.062896183233801722 0.057214265222423261 0.056630215400646944 -0.0628448587103108 -0.006151727610059745 -0.059431478551127952 -0.042875225519975108 0.039863449719816896 0.038946759648474806 -0.056453519237410134 0.053136934931461488 -0.056573727573416513 0.057239858628318853 -0.063979361096583989 -0.063979361096583989 -0.025911584230199639 0.061148033984293686 0.03256959742044957 0.056637465274299054 -0.058022039263710183 -0.036172913384770175 0.036290483872845149 0.010836606632713767 -0.058942961981843317 0.054318326726436772 0.041118582271808202 -0.030724457894072785 -0.16145910895405099 0.059620992438948486
leaf_weight=16.749323427677155 37.508648276329041 276.52597989886999 695.75807975232601 244.26708528399467 552.65456026792526 58.591736875474453 268.6802718937397 80.391086339950562 151.62245787680149 138.619583517313 174.73417711257935 45.260053642094135 149.0763618350029 18.669761903584003 501.70609366893768 201.76008778810501 119.7003687620163 17.484493657946587 25.311027109622955 220.59779255092144 51.933443233370781 197.34779255092144 39.277141079306602 102.34468351304531 181.25221008062363 33.752645261585712 39.596780762076378 135.97677823901176 3.4313885420560828 65.944051250815392
leaf_count=152 174 885 6314 2132 1765 210 843 239 746 769 516 281 428 169 1676 674 374 118 95 1425 171 677 198 388 552 215 241 426 11 493
internal_value=0 0.0141494 0.0295877 0.000788553 -0.0300154 -0.0314456 -0.0239995 -0.0198978 -0.035271 -0.00649299 -0.00643414 0.00449633 -0.0310226 -0.0552981 -0.0600641 -0.0419345 0.0147007 -0.0366426 -0.0451897 0.0136983 0.028249 -0.000838052 -0.0241448 -0.0123427 -0.0416287 -0.0141348 -0.00924977 -0.0162968 0.0235778 0.0286762
internal_weight=0 1738.43 1363.19 667.43 3108.09 423.163 2589.64 2320.96 1081.1 1239.85 528.449 944.457 194.336 295.196 518.455 375.246 310.92 217.53 200.045 750.12 374.876 375.245 236.625 154.278 295.396 114.144 159.297 173.485 127.967 124.536
internal_count=23357 11488 10214 3900 11869 1768 10041 9198 3855 5343 2090 4337 709 1054 1828 1274 1361 729 611 3628 1984 1644 875 559 1006 454 615 600 714 703
is_linear=0
shrinkage=0.05


Tree=22
num_leaves=31
num_cat=0
split_feature=30 31 32 8 30 13 14 18 32 31 31 26 30 26 12 31 30 22 21 15 13 5 0 0 1 13 11 18 11 32
split_gain=805.381 562.327 411.643 451.106 215.982 208.105 141.768 181.605 265.834 343.374 189.034 107.12 94.3733 93.6021 240.448 89.3257 82.6203 62.0004 59.942 83.2118 50.795 73.9959 49.4528 47.2895 51.4364 44.3102 43.995 43.6779 40.8247 40.0356
threshold=2.5000000000000004 4.5000000000000009 1.0000000180025095e-35 82.967589386920693 1.5000000000000002 792.96875000000011 632.81250000000011 56.892010535557517 1.0000000180025095e-35 4.5000000000000009 4.5000000000000009 40.561510333999493 3.5000000000000004 9.7657323283541846 0.28333333333333338 4.5000000000000009 3.5000000000000004 1.9450256612159145 208.93222216072954 0.22244104192253739 902.34375000000011 0.3455323441930041 68.324616276292687 49.238212119468976 870.24441298932777 605.46875000000011 1.1019649868090149 45.989672977624799 1.6911024051659973 1.0000000180025095e-35
decision_type=2 2 2 2 2 2 2 2 2 2 2 2 2 2 2 2 2 2 2 2 2 2 2 2 2 2 2 2 2 2
left_child=4 16 3 5 15 12 7 10 -9 13 -6 22 -3 -10 17 -1 20 25 -13 -20 21 -2 29 -7 -25 -15 -23 -22 -16 -12
right_child=1 2 -4 -5 6 23 -8 8 9 -11 11 18 -14 14 28 -17 -18 -19 19 -21 27 26 -24 24 -26 -27 -28 -29 -30 -31
leaf_value=0.056813093379856232 -0.049296020852313813 -0.061804137489400203 0.056813093379856232 0.056166232751972835 0.048750071318413246 -0.16212847348698115 -0.058215359533762036 -0.060532249863424294 -0.066625398299199237 0.059935050619674426 0.050211487351277818 -0.042834333138219945 0.056837097394952157 0.049708615482145925 0.048786403718650423 -0.063112973441531328 -0.063112973441531328 0.040913773638580182 -0.0035631100733820743 -0.053074960814894434 0.07450646663580078 0.06139082575997773 -0.066467753151432482 -0.00584253712924646 0.059083474637996805 -0.052988700863276297 -0.041941986222853542 -0.059613836060103433 -0.067509498655689101 -0.10153025267067567
leaf_weight=16.042100369930267 36.286414057016373 267.56900794804096 666.38040615618229 234.22488272190094 144.09808239340782 3.3621549308300009 260.77959187328815 500.87582036852837 132.05705526471138 131.78662450611591 98.652083680033684 199.56282839179039 17.88188125193119 10.9384348988533 113.01688221096992 483.62186992168427 194.48755389451981 20.657393902540207 534.62127402424812 100.87215687334538 6.6835817545652381 50.365552112460136 11.341886088252066 58.607400707900524 63.618560083210468 264.0318439155817 12.949030905961989 66.158020332455635 8.0862280577421171 4.5472334325313559
leaf_count=152 101 885 6314 2132 860 9 843 1652 395 891 550 666 169 49 611 1676 674 114 2186 313 27 249 35 210 495 843 36 187 22 11
internal_value=0 0.0139433 0.0292499 0.000784641 -0.0292167 -0.0307738 -0.0232966 -0.0192941 -0.0328857 -0.012539 -0.00461201 -0.0127095 -0.0543719 -0.029943 -0.0183188 -0.0592627 -0.0407722 -0.0426273 -0.0189291 -0.0114221 -0.0155754 0.00763144 0.0326338 0.0228627 0.0279514 -0.0489034 0.0402573 -0.0473076 0.0410212 0.0435253
internal_weight=0 1678.57 1311.64 645.264 3035.59 411.039 2535.93 2275.15 1181.45 680.574 1093.7 949.597 285.451 548.788 416.731 499.664 366.93 295.628 835.056 635.493 172.443 99.601 114.541 125.588 122.226 274.97 63.3146 72.8416 121.103 103.199
internal_count=23357 11488 10214 3900 11869 1768 10041 9198 4577 2925 4621 3761 1054 2034 1639 1828 1274 1006 3165 2499 600 386 596 714 705 892 285 214 633 561
is_linear=0
shrinkage=0.05


Tree=23
num_leaves=31
num_cat=0
split_feature=30 31 32 8 30 13 14 18 32 31 31 26 30 26 12 31 30 22 14 15 20 0 32 0 1 0 14 19 32 32
split_gain=744.265 526.302 390.735 423.67 208.598 195.097 134.061 170.755 251.179 318.82 173.932 97.8941 88.2817 88.1133 219.983 83.8652 79.6663 56.5843 55.6918 77.2595 46.8993 45.8432 45.1827 41.1334 49.1672 40.5158 39.8311 36.9983 67.439 52.1053
threshold=2.5000000000000004 4.5000000000000009 1.0000000180025095e-35 82.967589386920693 1.5000000000000002 792.96875000000011 632.81250000000011 56.892010535557517 1.0000000180025095e-35 4.5000000000000009 4.5000000000000009 40.561510333999493 3.5000000000000004 9.7657323283541846 0.28333333333333338 4.5000000000000009 3.5000000000000004 1.9450256612159145 382.81250000000006 0.22426800021575632 236.59219327371088 68.324616276292687 1.0000000180025095e-35 49.238212119468976 870.24441298932777 99.250488702667539 242.18750000000003 9.1449065809059196 1.0000000180025095e-35 1.0000000180025095e-35
decision_type=2 2 2 2 2 2 2 2 2 2 2 2 2 2 2 2 2 2 2 2 2 2 2 2 2 2 2 2 2 2
left_child=4 16 3 5 15 12 7 10 -9 13 -6 21 -3 -10 17 -1 20 25 -13 27 22 -12 -2 -7 -25 -15 -16 29 -29 -20
right_child=1 2 -4 -5 6 23 -8 8 9 -11 11 18 -14 14 26 -17 -18 -19 19 -21 -22 -23 -24 24 -26 -27 -28 28 -30 -31
leaf_value=0.056436814272987613 0.064073291003499164 -0.060776107780794744 0.056436814272987613 0.05572589424721567 0.047417717318536813 -0.14541605508990282 -0.057058415774691132 -0.059441954627942863 -0.065052799836480268 0.059095748198007496 0.042319098107265203 -0.041458969005703651 0.056459344250342193 -0.050915753837902325 0.062044255988944058 -0.062310957566222493 -0.062310957566222493 0.039539376030515633 0.0042041243264326518 -0.052865298754035041 0.014084294632872106 -0.065215184913791843 -0.050482210658005545 -0.0055490421202654093 0.058564880136139558 0.047284087385666584 0.0022475407086355605 -0.062199774997185792 0.027422538734755576 -0.033714380354204827
leaf_weight=15.358880400657652 9.5904056727886182 258.71515871584415 637.99980822205544 224.51759287714958 140.82377135753632 3.5556067228317252 252.96303606033325 484.96455027163029 128.57565598189831 127.09456137567759 100.89998371899128 194.73301215469837 17.120694167912006 261.12749549746513 74.49364398419857 465.80572080612183 187.32282567024231 20.315511092543602 202.69416552782059 93.58733457326889 76.247151926159859 10.990663528442381 83.990471586585045 58.621494807302952 61.038110665977001 10.943939089775084 44.4757961332798 24.33766283094883 152.61387901008129 163.82136665284634
leaf_count=152 36 885 6314 2132 860 9 843 1652 395 891 561 655 169 842 428 1676 674 114 808 296 322 35 242 210 495 50 205 76 806 524
internal_value=0 0.0137575 0.028927 0.000780541 -0.028383 -0.0301333 -0.022558 -0.0186558 -0.0320607 -0.012153 -0.00441668 -0.0121519 -0.0534995 -0.0289242 -0.0176317 -0.0585205 -0.0398261 -0.0409552 -0.0180583 -0.0109053 -0.0150249 0.0317563 -0.0387423 0.0221755 0.0271553 -0.0469657 0.0396897 -0.00367956 0.015096 -0.0127443
internal_weight=0 1618.72 1261.57 623.569 2970.62 399.051 2489.46 2236.49 1151.99 667.027 1084.5 943.678 275.836 539.932 411.356 481.165 357.151 292.387 831.787 637.054 169.828 111.891 93.5809 123.215 119.66 272.071 118.969 543.467 176.952 366.516
internal_count=23357 11488 10214 3900 11869 1768 10041 9198 4577 2925 4621 3761 1054 2034 1639 1828 1274 1006 3165 2510 600 596 278 714 705 892 633 2214 882 1332
is_linear=0
shrinkage=0.05


Tree=24
num_leaves=31
num_cat=0
split_feature=30 31 32 10 30 13 14 18 32 31 31 30 22 26 31 30 21 12 32 0 15 13 5 11 19 32 5 12 0 25
split_gain=688.66 492.266 371.03 398.349 201.274 184.564 126.667 160.491 221.98 306.57 175.324 86.2382 79.6441 79.1093 78.8027 77.4324 71.997 71.8618 66.721 76.2523 61.3598 46.0993 66.8074 45.9714 43.9807 70.9814 47.5735 42.4628 135.049 47.0379
threshold=2.5000000000000004 4.5000000000000009 1.0000000180025095e-35 27144.350525122445 1.5000000000000002 792.96875000000011 632.81250000000011 57.747625508819546 1.0000000180025095e-35 4.5000000000000009 4.5000000000000009 3.5000000000000004 0.61267012332550386 73.918598569157595 4.5000000000000009 3.5000000000000004 251.707165853558 0.28333333333333338 1.0000000180025095e-35 69.006860805419208 0.22606428497280742 902.34375000000011 0.39218621580368668 1.2630626886321381 9.0647760849295569 1.0000000180025095e-35 0.43270499289628578 0.24999999999999997 79.110323256383239 138.19187438293605
decision_type=2 2 2 2 2 2 2 2 2 2 2 2 2 2 2 2 2 2 2 2 2 2 2 2 2 2 2 2 2 2
left_child=4 15 3 5 14 11 7 10 -9 12 -6 -3 27 18 -1 21 -15 -14 19 -12 24 22 -2 -24 26 -26 -18 -10 -29 -30
right_child=1 2 -4 -5 6 -7 -8 8 9 -11 13 -13 17 16 -16 -17 20 -19 -20 -21 -22 -23 23 -25 25 -27 -28 28 29 -31
leaf_value=0.056083602822071948 -0.038814852848541595 -0.059988028216047387 0.056083602822071948 0.055677306916191951 0.044503250215089815 0.02171711035364508 -0.055953656182160486 -0.059794574995768429 -0.06254303592092339 0.059257297948910596 0.028800335061960381 0.056114763292641978 -0.020861987144109653 -0.050656406988231956 -0.061567255973398974 -0.061567255973398974 0.011040459998859841 0.05601692511696757 -0.089275581872008306 -0.062358379096164734 -0.051542591874914515 -0.045058092815412454 0.066025693580339259 -0.053851100829736431 -0.06141985216312347 0.02495991883113681 -0.032033707606476738 0.051572071337655824 -0.065330958689809718 -0.007064179013010501
leaf_weight=14.699499309062956 42.820000514388084 250.27182130515575 610.60946471989155 213.3703877478838 154.60104287415743 121.66366089135408 245.25604435801506 429.07529973983765 153.89873704314232 118.59746547788382 203.82884994894266 17.085779279470444 108.91459753364325 160.10703073441982 448.30409860610962 180.28458380699158 94.821936905384064 42.163798369467258 15.305630832910536 25.84941054880619 86.484420239925385 70.968161880970001 44.805449798703194 9.7352444529533368 27.748846471309662 166.39238621294498 197.86087515950203 42.544610053300858 117.92505261301994 49.042338445782661
leaf_count=152 126 886 6314 2115 954 723 843 1512 463 867 1014 176 427 510 1676 674 377 247 42 88 280 214 234 26 90 873 650 244 368 192
internal_value=0 0.0135676 0.0286172 0.000776112 -0.0276083 -0.0293361 -0.0218741 -0.0180666 -0.0320297 -0.0132119 -0.00497649 -0.0525684 -0.0299172 -0.012795 -0.0578321 -0.0387974 -0.0210121 0.000593807 0.0118048 0.0185408 -0.0127334 -0.0144104 0.00792933 0.0446283 -0.00583893 0.0126136 -0.0180788 -0.0426013 -0.027953 -0.0482166
internal_weight=0 1561.61 1213 602.392 2903.42 389.021 2440.42 2195.16 1062.16 633.087 1133 267.358 514.489 978.399 463.004 348.613 733.415 151.078 244.984 229.678 573.308 168.329 97.3607 54.5407 486.824 194.141 292.683 363.411 209.512 166.967
internal_count=23357 11488 10214 3900 11869 1785 10041 9198 4320 2808 4878 1062 1941 3924 1828 1274 2780 674 1144 1102 2270 600 386 260 1990 963 1027 1267 804 560
is_linear=0
shrinkage=0.05


Tree=25
num_leaves=31
num_cat=0
split_feature=30 31 32 10 30 13 14 18 32 31 31 26 30 26 12 30 31 0 24 21 15 22 27 32 0 28 16 2 32 13
split_gain=637.594 460.601 352.928 374.174 194.231 173.328 119.682 150.918 225.498 275.967 147.815 84.9787 80.7852 79.7921 190.139 74.8889 74.1017 65.7089 51.0641 48.7412 67.5961 42.7945 42.6836 42.3856 39.9038 39.4121 35.7118 54.4964 36.0373 35.6362
threshold=2.5000000000000004 4.5000000000000009 1.0000000180025095e-35 27144.350525122445 1.5000000000000002 792.96875000000011 632.81250000000011 56.892010535557517 1.0000000180025095e-35 4.5000000000000009 4.5000000000000009 40.561510333999493 3.5000000000000004 9.7657323283541846 0.24999999999999997 3.5000000000000004 4.5000000000000009 79.110323256383239 32.697910073091826 208.93222216072954 0.22244104192253739 1.1963347543115048 1.1878988237874868 1.0000000180025095e-35 68.324616276292687 0.83296498015121623 0.14678380260517107 127.80675109518903 1.0000000180025095e-35 621.09375000000011
decision_type=2 2 2 2 2 2 2 2 2 2 2 2 2 2 2 2 2 2 2 2 2 2 2 2 2 2 2 2 2 2
left_child=4 15 3 5 16 12 7 10 -9 13 -6 24 -3 -10 18 21 -1 -16 -15 -13 26 23 -19 -2 -12 -7 27 -21 -28 -20
right_child=1 2 -4 -5 6 25 -8 8 9 -11 11 19 -14 14 17 -17 -18 22 29 20 -22 -23 -24 -25 -26 -27 28 -29 -30 -31
leaf_value=0.055751803169648929 0.067513992264640291 -0.059067515072648097 0.055751803169648929 0.055293320652376778 0.044891079562972142 0.036210222644995078 -0.054894931158468441 -0.057488618159576434 -0.062528205154666908 0.057598837834295716 0.040393764030686466 -0.03849940120696535 0.055781099878733822 0.042291163142385332 0.058860611817129885 -0.060876571282403702 -0.060876571282403702 -0.050700971335148372 0.038540169756999129 0.0011793368643299332 -0.048845257715537084 0.020336633961843893 0.021038119122204352 -0.042608055655995 -0.062983916186572578 -0.032207458453863878 -0.066105525864211423 -0.040584778412548948 0.02465950162740578 -0.056113206726234599
leaf_weight=14.063703417778013 9.599160969257353 241.68169431388378 584.1988380253315 204.33802073448896 134.64823169261217 93.496417552232742 237.67987436056137 453.92669303715229 121.48091839253902 118.11561520397663 97.630338929593563 195.05367855727673 16.347250267863274 15.514321371912954 75.878121882677078 173.38819468021393 431.1552140712738 31.950822457671165 10.443367093801497 264.42310291528702 94.274908617138863 58.915135115385056 59.062677681446075 97.393994033336639 10.32157616317272 27.164768919348717 11.861938297748564 110.85500873625278 140.08209213614464 207.94776146113873
leaf_count=152 38 886 6314 2115 860 608 843 1652 395 891 561 666 176 90 482 674 1676 102 45 1121 313 262 264 300 35 115 38 367 660 656
internal_value=0 0.0133797 0.0282855 0.000764073 -0.02687 -0.0286595 -0.0212241 -0.0175079 -0.0305298 -0.0114208 -0.00405347 -0.0111819 -0.0517914 -0.0270299 -0.0162704 -0.0378985 -0.0571925 0.0245001 -0.0453602 -0.0166938 -0.00985017 -0.0138845 -0.00414631 -0.0327282 0.0305095 0.0208072 -0.00287728 -0.0111575 0.0175737 -0.0515869
internal_weight=0 1506.52 1167.23 583.028 2836.37 378.69 2391.15 2153.47 1094.32 640.394 1059.15 924.503 258.029 522.278 400.797 339.296 445.219 166.892 233.905 816.551 621.497 165.908 91.0135 106.993 107.952 120.661 527.222 375.278 151.944 218.391
internal_count=23357 11488 10214 3900 11869 1785 10041 9198 4577 2925 4621 3761 1062 2034 1639 1274 1828 848 791 3165 2499 600 366 338 596 723 2186 1488 698 701
is_linear=0
shrinkage=0.05


Tree=26
num_leaves=31
num_cat=0
split_feature=30 31 32 10 30 13 4 18 32 31 31 18 26 30 32 30 1 31 17 12 26 0 32 0 13 0 5 15 19 18
split_gain=590.089 430.688 335.73 351.652 187.715 162.887 113.779 166.806 241.493 231.774 111.91 94.4142 81.3457 75.7201 75.7182 72.9957 69.9798 69.7299 61.8899 54.6467 150.463 43.5536 42.2912 88.472 41.8147 41.6926 52.1804 39.0329 36.9266 36.7292
threshold=2.5000000000000004 4.5000000000000009 1.0000000180025095e-35 27144.350525122445 1.5000000000000002 792.96875000000011 218.54983280141798 55.254658385093173 1.0000000180025095e-35 4.5000000000000009 4.5000000000000009 59.53846153846154 73.918598569157595 3.5000000000000004 1.0000000180025095e-35 3.5000000000000004 610.92469044788584 4.5000000000000009 79.183673469387784 0.24999999999999997 16.66225086624247 77.30256185235767 1.0000000180025095e-35 54.080498406985051 832.03125000000011 68.56113077386776 0.30900081979071231 0.22606428497280742 14.92808233585316 45.989672977624799
decision_type=2 2 2 2 2 2 2 2 2 2 2 2 2 2 2 2 2 2 2 2 2 2 2 2 2 2 2 2 2 2
left_child=4 15 3 5 17 13 7 10 -9 11 -6 -10 14 -3 -12 25 -13 -1 22 -18 -21 -22 23 -14 -11 29 -27 -20 -8 -2
right_child=1 2 -4 -5 6 -7 28 8 9 24 12 16 18 -15 -16 -17 19 -19 27 20 21 -23 -24 -25 -26 26 -28 -29 -30 -31
leaf_value=0.055439905818810323 0.073789876414947012 -0.058191934818749229 0.055439905818810323 0.054928407947250617 0.050723027884172781 0.019990851353144531 -0.054435114579049648 -0.054493352212013915 0.024661346308595861 0.059042977004524134 0.031250435618988076 0.0449089356047295 0.052346035566875684 0.055467463298090783 -0.091048515115419504 -0.060234199131277068 -0.055651662052701438 -0.060234199131277068 0.00087017449745923801 -0.060934213671344342 0.062080767520604978 -0.0025787309950779614 -0.065110663614553949 -0.042774808017112802 -0.13014220872432211 -0.046580003290497732 0.037908409932397247 -0.062364868217378848 0.033721004855763355 -0.049281868633521908
leaf_weight=13.451164305210112 6.6069852709770194 233.26603925228119 558.75428567826748 195.63097039610147 96.408873744308949 119.38264933228493 267.16694918274879 516.06206677854061 88.104212269186974 116.13651344180107 174.28816107660532 27.854000329971313 32.421271115541458 15.635684564709662 13.646919965744017 166.64615225791931 203.39745259284973 414.39013528823853 361.25800220668316 111.82337182015181 40.962042145431042 71.507831603288651 81.985868781805038 99.365934252738953 2.996102273464202 26.721846729516983 57.811645060777664 26.171599999070168 12.431574285030363 73.529467046260834
leaf_count=152 27 886 6314 2115 665 723 962 1919 485 928 920 129 194 176 35 674 669 1676 1503 376 268 292 243 311 8 76 269 87 47 228
internal_value=0 0.0131882 0.0279714 0.000754241 -0.0261415 -0.0280228 -0.0205824 -0.0165283 -0.0288468 -0.00887763 -0.000129886 -0.0227188 -0.00634258 -0.051052 0.0223697 -0.0369046 -0.0318823 -0.0565975 -0.015318 -0.0368835 -0.0198638 0.0209706 -0.0369148 -0.0193739 0.0542851 -0.0132951 0.0112008 -0.00340147 -0.0505155 -0.039135
internal_weight=0 1453.99 1122.67 563.915 2771.83 368.284 2343.99 2064.39 1178.84 662.782 885.547 543.649 789.138 248.902 187.935 331.316 455.545 427.841 601.203 427.691 224.293 112.47 213.773 131.787 119.133 164.67 84.5335 387.43 279.599 80.1365
internal_count=23357 11488 10214 3900 11869 1785 10041 9032 5074 3155 3958 2219 3293 1062 955 1274 1734 1828 2338 1605 936 560 748 505 936 600 345 1590 1009 255
is_linear=0
shrinkage=0.05


Tree=27
num_leaves=31
num_cat=0
split_feature=30 31 32 8 30 1 7 18 32 31 31 1 12 26 0 30 30 32 31 17 0 12 15 32 0 0 16 1 20 12
split_gain=546.484 403.047 319.612 330.563 181.367 152.863 107.885 144.634 230.392 223.362 106.272 89.1291 143.962 79.6793 76.0841 73.9623 70.8352 69.428 65.6585 55.8121 50.4943 48.3518 45.8327 44.5485 83.7539 42.107 41.2782 40.7556 39.5089 44.4605
threshold=2.5000000000000004 4.5000000000000009 1.0000000180025095e-35 82.967589386920693 1.5000000000000002 870.24441298932777 121.09375000000001 55.254658385093173 1.0000000180025095e-35 4.5000000000000009 4.5000000000000009 768.45426602086457 0.24999999999999997 73.918598569157595 97.895942936610794 3.5000000000000004 3.5000000000000004 1.0000000180025095e-35 4.5000000000000009 77.583673469387776 49.238212119468976 0.13416582292721338 0.22426800021575632 1.0000000180025095e-35 53.103569277974572 78.651480161992552 0.14678380260517107 823.09557360742713 425.33452458294471 0.24999999999999997
decision_type=2 2 2 2 2 2 2 2 2 2 2 2 2 2 2 2 2 2 2 2 2 2 2 2 2 2 2 2 2 2
left_child=4 16 3 5 18 15 7 10 -9 11 -6 14 21 17 -10 25 28 -12 -1 23 -7 -13 26 24 -15 -3 -21 -11 29 -2
right_child=1 2 -4 -5 6 20 -8 8 9 27 13 12 -14 19 -16 -17 -18 -19 -20 22 -22 -23 -24 -25 -26 -27 -28 -29 -30 -31
leaf_value=0.055146523126763582 -0.052236514293987082 -0.015767289402608794 0.055146523126763582 0.054210321848897153 0.049070263975837226 -0.13334497070060489 -0.051470269126340243 -0.0534041589202124 -0.046433555239606975 0.060091228591444161 0.030056363751577914 0.068728427783226007 0.052574871450699827 0.064585370519240612 0.037682942788475747 0.055937450282706226 -0.059635945189114373 -0.087998645696667432 -0.059635945189114373 -0.01195846484887743 0.057585806327390812 -0.040362670726098941 -0.05319440873243983 -0.068221811060135751 -0.039791487064729909 -0.060034459171776411 0.022661170793161555 -0.10458948796348051 0.029541690123464942 0.0092978709168328837
leaf_weight=12.861490130424498 71.94444751739502 72.571144662797451 534.25953081250191 188.96934031695127 94.071109622716904 3.6926704347133628 243.1050932481885 502.38831873238087 290.97501344233751 112.0849052220583 173.06273360550404 11.127936616539953 86.981318935751915 23.97910113632679 29.619054444134235 18.034913785755634 160.06852000951767 13.419616281986235 398.03388655185699 246.26316544413567 55.633332788944244 116.43636766076088 45.065148770809174 74.560821115970612 96.822624802589417 206.79601629078388 132.3913960903883 3.8873082101345053 41.174417465925217 49.587352395057678
leaf_count=152 219 256 6314 2132 666 9 904 1927 1031 926 923 64 585 155 137 198 674 35 1676 941 495 404 155 234 317 810 623 14 202 179
internal_value=0 0.013004 0.0276563 0.000742298 -0.025449 -0.0275813 -0.0199744 -0.0162451 -0.027965 -0.00833646 -0.00121812 -0.0219694 0.00297445 -0.00709063 -0.0386622 -0.0421998 -0.0360206 0.0215609 -0.0560431 -0.0157212 0.0457016 -0.0308462 -0.00552724 -0.0378306 -0.0190727 -0.0485352 0.000145818 0.0545712 -0.0127881 -0.0271293
internal_weight=0 1402.73 1079.96 545.697 2707.14 356.728 2296.24 2053.14 1153.5 651.112 899.636 535.14 214.546 805.565 320.594 297.402 322.775 186.482 410.895 619.082 59.326 127.564 423.72 195.363 120.802 279.367 378.655 115.972 162.706 121.532
internal_count=23357 11488 10214 3900 11869 1768 10041 9137 5088 3161 4049 2221 1053 3383 1168 1264 1274 958 1828 2425 504 468 1719 706 472 1066 1564 940 600 398
is_linear=0
shrinkage=0.05


Tree=28
num_leaves=31
num_cat=0
split_feature=30 31 32 10 30 1 14 18 32 31 31 30 30 22 26 31 12 13 14 15 0 32 0 19 13 5 11 27 18 32
split_gain=505.89 377.473 303.913 311.335 175.484 145.127 102.927 129.847 181.668 231.978 127.523 71.8331 68.9017 66.7103 63.0635 61.8622 56.0268 51.7497 48.697 50.6937 46.0932 40.4708 40.2232 38.915 38.3028 55.7195 38.3745 37.874 35.8281 35.6417
threshold=2.5000000000000004 4.5000000000000009 1.0000000180025095e-35 27144.350525122445 1.5000000000000002 870.24441298932777 632.81250000000011 57.747625508819546 1.0000000180025095e-35 4.5000000000000009 4.5000000000000009 3.5000000000000004 3.5000000000000004 0.61267012332550386 40.561510333999493 4.5000000000000009 0.28333333333333338 886.71875000000011 367.18750000000006 0.22606428497280742 49.238212119468976 1.0000000180025095e-35 78.651480161992552 14.92808233585316 902.34375000000011 0.3455323441930041 0.85189946105928083 1.4807138599190128 45.989672977624799 1.0000000180025095e-35
decision_type=2 2 2 2 2 2 2 2 2 2 2 2 2 2 2 2 2 2 2 2 2 2 2 2 2 2 2 2 2 2
left_child=4 12 3 5 15 11 7 10 -9 13 -6 22 24 -10 17 -1 27 -12 -16 -20 -7 -8 -3 -21 25 -2 -27 -15 -26 -19
right_child=1 2 -4 -5 6 20 21 8 9 -11 14 -13 -14 16 18 -17 -18 29 19 23 -22 -23 -24 -25 28 26 -28 -29 -30 -31
leaf_value=0.054870393206454232 -0.042466428783423105 -0.015684711003174173 0.054870393206454232 0.054260075477389029 0.04027983422767184 -0.12299018155032415 0.085090464708626842 -0.056462197871034771 -0.038527344633521157 0.056864406913048005 -0.059655872471744378 0.055601091882632236 -0.059078100658597567 -0.030033463461792288 -0.037757006818796318 -0.059078100658597567 0.05325358774079561 0.044241896239247291 -0.0035470798300471038 -0.056553182319242293 0.057145557606697761 -0.055640153493592873 -0.059287081850930012 0.076402077289048576 0.070460094462872921 0.065838516914010783 -0.019673443156095986 0.052018110569227317 -0.052872956163617882 -0.095429400835154568
leaf_weight=12.294236958026884 34.139852091670036 71.963038139045238 510.6961325854063 179.2452699020505 141.28857164829969 3.8003384172916403 5.2357947081327429 374.60787147283554 336.16010045260191 101.49383551627398 15.919016659259794 17.928676150739193 153.6631016433239 87.902049578726292 189.50278994441032 382.10587292909622 39.083295926451683 94.21778029948473 554.96840058267117 72.567250221967697 54.173286572098732 210.34712938964367 199.59465668350458 5.9552478641271582 6.5174081474542609 39.854617327451706 19.558335438370705 16.74269986897707 61.023423954844475 4.8002619743347159
leaf_count=152 101 254 6314 2115 954 9 22 1512 1267 867 61 206 674 329 672 1676 247 570 2328 256 504 821 812 25 27 222 63 98 187 12
internal_value=0 0.0128351 0.0273868 0.000738497 -0.0247609 -0.0268718 -0.01937 -0.0158901 -0.0293088 -0.0118128 -0.00400362 -0.0413327 -0.0351256 -0.0263376 -0.0106744 -0.0555261 0.00217248 0.0240186 -0.0155195 -0.00886742 0.0453371 -0.0522223 -0.0477324 -0.0464697 -0.0122778 0.00843792 0.0376886 -0.0169056 -0.0409718 0.0374708
internal_weight=0 1352.16 1037.4 526.705 2645.19 347.46 2250.79 2035.21 955.99 581.382 1079.22 289.486 314.757 479.888 937.931 394.4 143.728 114.937 822.994 633.491 57.9736 215.583 271.558 78.5225 161.094 93.5528 59.413 104.645 67.5408 99.018
internal_count=23357 11488 10214 3900 11869 1785 10041 9198 4320 2808 4878 1272 1274 1941 3924 1828 674 643 3281 2609 513 843 1066 281 600 386 285 427 214 582
is_linear=0
shrinkage=0.05


Tree=29
num_leaves=31
num_cat=0
split_feature=30 31 32 5 30 1 25 4 32 1 11 12 19 24 30 30 1 31 0 27 18 1 0 0 31 24 11 11 12 19
split_gain=467.452 354.023 289.056 293.117 170.338 148.092 99.4341 121.817 93.9461 255.235 109.658 97.7912 133.372 77.0434 66.5877 65.3704 62.2913 58.3181 48.3719 46.9064 42.6494 48.2618 42.4533 40.0311 39.5429 35.8841 35.6981 33.8268 33.5691 33.4615
threshold=2.5000000000000004 4.5000000000000009 1.0000000180025095e-35 0.72597666159310015 1.5000000000000002 870.24441298932777 59.571901646875851 218.54983280141798 1.0000000180025095e-35 889.45018531332551 0.85809302855099434 0.28333333333333338 9.3377959359999494 32.697910073091826 3.5000000000000004 3.5000000000000004 1073.5994562298604 4.5000000000000009 90.750891341256377 1.4582419885258557 62.443151771549445 1051.2265512265515 48.119331489728864 78.651480161992552 4.5000000000000009 37.290315537394456 1.071371966670198 1.2983267986855764 0.24999999999999997 14.92808233585316
decision_type=2 2 2 2 2 2 2 2 2 2 2 2 2 2 2 2 2 2 2 2 2 2 2 2 2 2 2 2 2 2
left_child=4 14 3 5 17 15 -6 8 9 -8 16 12 13 -10 25 23 -11 -1 20 -12 21 -15 -7 26 -23 -2 -3 -13 -27 -9
right_child=1 2 -4 -5 6 22 7 29 11 10 19 27 -14 18 -16 -17 -18 -19 -20 -21 -22 24 -24 -25 -26 28 -28 -29 -30 -31
leaf_value=0.054610355385376431 0.033298846133537223 -0.052811839212653644 0.054610355385376431 0.054315143980685814 -0.052293218437383097 -0.11458572535323255 -0.059130546317134075 -0.051751534399297361 0.04942327042978694 -0.03742696423971504 0.03300369935374331 0.04092359813475422 0.03087464644404089 -0.0083959435445470128 -0.058557315392425126 0.055322721505228184 0.030994921193396214 -0.058557315392425126 0.026100531571132075 -0.015849331517281521 -0.049525246773152412 0.054860809803222721 0.056623389518307699 -0.059436207155350987 -0.067868092271856709 -0.045204525601217023 0.01802836715982508 -0.0084707667245871188 0.0081520055194160019 0.032898756637705757
leaf_weight=11.748917818069456 34.422684118151665 33.802420869469643 488.04386252164841 169.91473404318094 200.74703232944012 3.8730549216270438 306.93628184497356 242.75483445823193 37.431634746491909 197.41884607076645 198.8018301948905 162.62480501830578 166.67249236255884 253.62477976083755 147.4358127117157 16.423070460557938 40.004875801503658 366.62080430984497 42.989057682454586 65.265366122126579 169.47338352352381 7.3227643370628348 55.578957729041576 191.10750866681337 63.273513182997704 75.628114119172096 37.527458727359772 44.05005244165659 48.308067083358765 12.264027565717695
leaf_count=152 174 110 6314 2081 811 9 1254 962 261 677 1002 1087 1087 1022 674 197 227 1676 279 250 603 47 550 811 199 243 142 226 183 47
internal_value=0 0.0126826 0.0271269 0.000734848 -0.0240424 -0.0261754 -0.0187387 -0.015389 -0.0106991 -0.0232196 -0.00124041 -1.59484e-05 -0.00850063 -0.0199317 -0.0343764 -0.0414499 -0.0258982 -0.0550433 -0.024769 0.0209295 -0.0291985 -0.0185736 0.0454698 -0.0475059 -0.0551377 -0.0118635 -0.015542 0.0303958 -0.0244071 -0.0476806
internal_weight=0 1302.07 996.271 508.227 2590.03 338.312 2211.66 2010.91 1755.89 808.427 501.491 947.462 740.788 574.115 305.795 278.86 237.424 378.37 536.683 264.067 493.694 324.221 59.452 262.437 70.5963 158.359 71.3299 206.675 123.936 255.019
internal_count=23357 11488 10214 3900 11869 1819 10041 9230 8221 3410 2156 4811 3498 2411 1274 1260 904 1828 2150 1252 1871 1268 559 1063 246 600 252 1313 426 1009
is_linear=0
shrinkage=0.05


Tree=30
num_leaves=31
num_cat=0
split_feature=30 31 32 5 30 1 14 27 32 1 1 27 13 1 30 12 19 30 24 31 28 28 20 27 0 0 0 4 1 32
split_gain=432.768 331.712 274.945 276.069 164.925 138.448 93.635 115.388 79.2997 188.575 95.3175 79.5227 77.597 68.4981 64.8524 63.3424 95.2939 61.0482 57.1253 55.0058 54.6731 53.845 52.1009 41.8197 41.4314 39.5798 39.1887 38.7846 40.6157 36.6616
threshold=2.5000000000000004 4.5000000000000009 1.0000000180025095e-35 0.72597666159310015 1.5000000000000002 870.24441298932777 632.81250000000011 0.82435923320510851 1.0000000180025095e-35 889.45018531332551 1085.1931465241621 1.0896381727550675 652.34375000000011 929.63435374149674 3.5000000000000004 0.28333333333333338 9.3377959359999494 3.5000000000000004 32.697910073091826 4.5000000000000009 0.75183816034042239 0.57541753439893573 266.75993295414543 1.5612772373530623 66.72482016530158 78.651480161992552 48.119331489728864 37.186762131820515 994.37090456647934 1.0000000180025095e-35
decision_type=2 2 2 2 2 2 2 2 2 2 2 2 2 2 2 2 2 2 2 2 2 2 2 2 2 2 2 2 2 2
left_child=4 14 3 5 19 17 7 13 9 -9 11 -11 -10 -6 -2 16 18 25 -14 -1 23 -17 -22 -13 -18 -3 -7 -20 -29 -8
right_child=1 2 -4 -5 6 26 29 8 12 10 -12 20 15 -15 -16 21 24 -19 27 -21 22 -23 -24 -25 -26 -27 -28 28 -30 -31
leaf_value=0.054365331989751221 -0.011380072150618349 -0.01484221846606687 0.054365331989751221 0.053998715421877869 -0.053894777216911882 -0.10763004599967825 0.081525958708325116 -0.057968048368031391 0.040467683385656344 0.035773743859266079 0.041938868766956107 0.0098629701002131229 0.046531824816479009 0.036843157974449862 -0.058070609249287579 -0.013385778237114121 -0.0072039510763212376 0.055039587835335003 -0.041611326702123065 -0.058070609249287579 -0.055567279389772843 0.042274053936708363 0.02807244273911972 -0.047936456472186473 0.044661049996026575 -0.058801219803301635 0.056261096733504559 0.0014905835976763611 -0.038529368406498496 -0.054112958021426877
leaf_weight=11.225010633468626 156.9028639793396 70.995225057005882 466.2810338139534 162.55112132430077 236.62118088454008 3.9159359335899344 5.1116740703582755 248.37239357829094 102.24586598575115 64.728106826543808 90.205939643085003 125.61065623164177 28.209078840911388 22.803326904773712 141.39088147878647 71.214006491005421 68.956502720713615 15.700437150895594 231.35833959281445 351.58919489383698 146.43411076068878 111.45617517828941 21.33144810795784 41.678917601704597 87.195132754743099 183.70042183250189 53.200156971812248 167.06312031298876 102.17189738899469 196.01426643133163
leaf_count=152 600 252 6314 2081 1002 9 22 1055 754 300 609 504 202 134 674 333 296 197 840 1676 491 780 77 130 601 811 550 738 352 821
internal_value=0 0.0125224 0.0268808 0.000730087 -0.02339 -0.0257082 -0.0181703 -0.0148487 -0.0101302 -0.022477 -0.00448676 -0.0149621 -0.000730546 -0.0459189 -0.0335113 -0.00558558 -0.0125624 -0.0406492 -0.0226968 -0.054592 -0.0247636 0.0205751 -0.0449325 -0.00453731 0.0217575 -0.0465479 0.0450246 -0.0265979 -0.0136966 -0.0506657
internal_weight=0 1254.64 956.344 490.063 2531.6 327.512 2168.78 1967.66 1708.23 738.362 489.989 399.783 969.87 259.425 298.294 867.624 684.954 270.396 528.802 362.814 335.055 182.67 167.766 167.29 156.152 254.696 57.1161 500.593 269.235 201.126
internal_count=23357 11488 10214 3900 11869 1819 10041 9198 8062 3166 2111 1502 4896 1136 1274 4142 3029 1260 2132 1828 1202 1113 568 634 897 1063 559 1930 1090 843
is_linear=0
shrinkage=0.05


Tree=31
num_leaves=31
num_cat=0
split_feature=30 31 32 10 30 13 25 7 32 1 11 12 19 24 30 27 30 31 13 0 1 18 31 17 11 13 5 31 18 18
split_gain=400.828 310.327 261.638 260.037 159.636 121.623 89.6098 109.239 77.3172 233.163 97.2448 83.0633 111.507 68.0535 63.6695 58.1673 55.1563 51.9069 51.7333 41.1804 40.3952 37.925 43.9021 47.5391 34.6762 34.4774 50.7707 33.1102 32.9781 32.8357
threshold=2.5000000000000004 4.5000000000000009 1.0000000180025095e-35 27144.350525122445 1.5000000000000002 792.96875000000011 59.571901646875851 121.09375000000001 1.0000000180025095e-35 889.45018531332551 0.70061238408760074 0.28333333333333338 9.3377959359999494 32.697910073091826 3.5000000000000004 1.1790935266796898 3.5000000000000004 4.5000000000000009 1105.4687500000002 90.750891341256377 1123.5611457842676 62.443151771549445 4.5000000000000009 77.583673469387776 1.2983267986855764 902.34375000000011 0.30900081979071231 4.5000000000000009 55.254658385093173 45.989672977624799
decision_type=2 2 2 2 2 2 2 2 2 2 2 2 2 2 2 2 2 2 2 2 2 2 2 2 2 2 2 2 2 2
left_child=4 14 3 5 17 16 -6 8 9 -8 20 12 13 -10 25 -12 -3 -1 -17 21 -11 22 28 -24 -13 26 -2 -23 -15 -27
right_child=1 2 -4 -5 6 -7 7 -9 11 10 15 24 -14 19 -16 18 -18 -19 -20 -21 -22 27 23 -25 -26 29 -28 -29 -30 -31
leaf_value=0.054134344217448532 -0.044543050068590544 -0.054466676942625351 0.054134344217448532 0.053350734636380383 -0.050468972455846334 0.017331795653689707 -0.0577258902505337 -0.048047551448580181 0.048458244473955636 -0.043176662563418178 0.039972564731926688 0.038759384196633023 0.027854325955479334 0.043697341300268415 -0.057615291785989398 -0.014163950967674888 0.05414408205450684 -0.057615291785989398 0.047902379957274303 0.024474250796442817 0.060473998070805814 -0.051551860308378432 -0.065695341328129972 -0.015119163500709871 -0.010558104244256024 0.068710437934330224 0.034944277977653801 0.060212043961776297 -0.011874474748518911 -0.050249877601289766
leaf_weight=10.72196841239929 29.816513538360596 194.38103509694338 445.38492470979691 156.84675329178572 189.20727555453777 108.99563775956631 286.70812828838825 214.70050719380379 35.345287762582302 131.93500642478466 128.75727234780788 157.94684936106205 164.96029990166426 40.178116180002689 135.53107991814613 177.05286976695061 12.437252350151537 337.01793760061264 41.429683692753315 41.882696986198425 10.121033266186712 157.17625777423382 67.685326874256134 148.17764603346586 46.029773287475109 6.4338717907667151 61.575834959745407 6.9184129759669295 79.562224358320236 58.945487767457962
leaf_count=152 89 886 6314 2115 811 723 1265 904 260 475 675 1092 1099 254 674 632 176 1676 301 279 74 547 234 537 233 27 297 56 313 187
internal_value=0 0.0123508 0.0266367 0.000725878 -0.0227639 -0.0254099 -0.0176264 -0.0144177 -0.0102243 -0.0219217 -0.000941932 -0.000627533 -0.00839683 -0.0187621 -0.0325176 0.0133152 -0.0479352 -0.0541697 -0.00239464 -0.0231491 -0.0357919 -0.0271407 -0.0175088 -0.0309777 0.0276303 -0.0108204 0.00901175 -0.0468398 0.0067723 -0.0385432
internal_weight=0 1210.35 918.046 472.661 2473.51 315.814 2125.77 1936.57 1721.87 776.004 489.296 945.863 741.886 576.926 292.303 347.24 206.818 347.74 218.483 541.581 142.056 499.698 335.603 215.863 203.977 156.772 91.3923 164.095 119.74 65.3794
internal_count=23357 11488 10214 3900 11869 1785 10041 9230 8326 3422 2157 4904 3579 2480 1274 1608 1062 1828 933 2220 549 1941 1338 771 1325 600 386 603 567 214
is_linear=0
shrinkage=0.05


Tree=32
num_leaves=31
num_cat=0
split_feature=30 31 32 5 30 1 14 6 32 13 1 31 27 30 1 30 0 27 31 0 0 16 2 31 0 13 22 32 11 9
split_gain=371.243 290.725 249.528 245.317 154.514 124.704 85.392 104.631 90.7577 233.469 83.6897 95.3213 69.2714 61.7312 54.9534 54.0014 52.53 50.9071 49.005 37.4845 36.635 35.4712 37.7992 55.8534 113.016 53.5875 37.1605 32.9028 32.7811 32.569
threshold=2.5000000000000004 4.5000000000000009 1.0000000180025095e-35 0.72597666159310015 1.5000000000000002 870.24441298932777 632.81250000000011 0.011464603979916351 1.0000000180025095e-35 886.71875000000011 997.58806008806016 4.5000000000000009 1.2200997548535228 3.5000000000000004 935.69422675026135 3.5000000000000004 53.103569277974572 1.0896381727550675 4.5000000000000009 78.651480161992552 48.119331489728864 0.14678380260517107 127.80675109518903 4.5000000000000009 75.693682967587748 902.34375000000011 0.91099961361335691 1.0000000180025095e-35 1.071371966670198 146.82005628978177
decision_type=2 2 2 2 2 2 2 2 2 2 2 2 2 2 2 2 2 2 2 2 2 2 2 2 2 2 2 2 2 2
left_child=4 13 3 5 18 15 7 14 9 -9 21 -12 -11 -2 -6 19 -14 -16 -1 28 -7 22 23 24 -10 -25 -26 -8 -3 -13
right_child=1 2 -4 -5 6 20 27 8 10 12 11 29 16 -15 17 -17 -18 -19 -20 -21 -22 -23 -24 25 26 -27 -28 -29 -30 -31
leaf_value=0.053916484144124956 -0.010429055118268409 -0.050554267152880299 0.053916484144124956 0.053461030161164824 -0.047416942161737176 -0.10268129818956021 0.077982273935225846 -0.057461771341181203 0.037725872659233488 0.031275409092757035 0.05248570538031494 -0.069594423639181627 0.059010823557493264 -0.057188938210312415 0.034000300780442722 0.054591959350141064 -0.020292292139409862 -0.030411241522297322 -0.057188938210312415 -0.057693285299851405 0.055812490299190234 0.032798077740663789 -0.029968391867068796 0.052909322478235724 -0.033612743432321138 -0.068127722630163673 0.022816115075393661 -0.052720471134499382 0.0178815991145484 -0.019589276242424417
leaf_weight=10.23922151327133 154.62947778403759 33.004832170903683 425.33187259733677 148.74487083405256 299.04298266023397 3.9320685863494864 4.9454138725996009 265.28218504786491 123.02085525542498 141.87586886435747 29.609539680182934 71.520317167043686 23.083705574274063 129.85790449380875 45.495886109769344 14.431092649698256 218.91014472395182 94.167883448302746 322.91075360774994 169.92759700119495 50.106684289872646 152.78209894150496 66.068004876375198 98.411545045673847 160.91797879338264 10.081443205475805 35.636745966970921 182.69993102550507 37.244175471365452 59.77899132668972
leaf_count=152 600 110 6314 2081 1282 9 22 1214 828 741 243 225 183 674 270 197 804 418 1676 811 550 908 234 837 581 33 184 821 142 213
internal_value=0 0.0121827 0.026349 0.000713773 -0.0221571 -0.0247065 -0.0171011 -0.0139163 -0.00747052 -0.0213915 0.0037161 -0.0285526 0.00353564 -0.0317732 -0.0353234 -0.0393484 -0.0127276 -0.00942899 -0.0537742 -0.0449929 0.0442799 0.0117423 0.00523211 0.0106649 0.000141646 0.0416623 -0.0233818 -0.0492758 -0.0142714 -0.0468277
internal_weight=0 1167.21 882.723 457.391 2416.48 308.646 2083.33 1895.69 1456.98 649.152 807.828 160.909 383.87 284.487 438.707 254.608 241.994 139.664 333.15 240.177 54.0388 646.919 494.137 428.069 319.576 108.493 196.555 187.645 70.249 131.299
internal_count=23357 11488 10214 3900 11869 1819 10041 9198 7228 2942 4286 681 1728 1274 1970 1260 987 688 1828 1063 559 3605 2697 2463 1593 870 765 843 252 438
is_linear=0
shrinkage=0.05


Tree=33
num_leaves=31
num_cat=0
split_feature=30 31 32 7 30 1 14 25 32 1 13 12 19 26 14 30 24 27 30 13 31 6 0 18 9 11 22 32 28 25
split_gain=343.697 272.086 237.548 231.23 149.676 117.681 81.9261 96.5816 74.2943 200.664 85.2255 69.1105 87.3058 67.464 64.3192 60.5564 58.0098 52.048 49.3647 48.4007 46.285 39.5978 41.1236 38.9626 35.7162 35.6222 32.4974 37.5214 30.6657 28.718
threshold=2.5000000000000004 4.5000000000000009 1.0000000180025095e-35 50.781250000000007 1.5000000000000002 801.33275425497482 648.43750000000011 59.571901646875851 1.0000000180025095e-35 889.45018531332551 1074.2187500000002 0.28333333333333338 9.3377959359999494 28.630932282885055 367.18750000000006 3.5000000000000004 32.697910073091826 1.4973567129114329 3.5000000000000004 878.90625000000011 4.5000000000000009 0.024639214597932352 58.282935186282323 50.198222829801786 143.97989242911484 1.4090420118123743 1.1963347543115048 1.0000000180025095e-35 0.80564574006408796 485.88654572426964
decision_type=2 2 2 2 2 2 2 2 2 2 2 2 2 2 2 2 2 2 2 2 2 2 2 2 2 2 2 2 2 2
left_child=4 15 3 5 20 18 7 -6 9 -9 13 12 16 -11 -15 26 -10 -16 -3 -14 -1 -18 -23 -13 -21 -25 27 -2 -7 -30
right_child=1 2 -4 -5 6 28 -8 8 11 10 -12 23 19 14 17 -17 21 -19 -20 24 -22 22 -24 25 -26 -27 -28 -29 29 -31
leaf_value=0.053710914625818465 0.067410728793909178 -0.052720533178058061 0.053710914625818465 0.05402348907105034 -0.048796705913676061 0.036571976312020048 -0.052262861716079669 -0.056629253379203361 0.045924741943810313 0.042377240543976354 0.035902135909354857 -0.026254013460435599 0.042402207335364581 -0.042434402329857616 0.021293028782123177 -0.056789340004168465 -0.042027144843738047 -0.041685909921711506 0.05373624965504991 -0.053731005086502304 -0.056789340004168465 -0.044339058359051463 -0.0039816893074209212 0.045228389446207225 0.019917468502788974 -0.012770483401499277 0.020641662361869956 -0.037163206998403191 -0.063830367975238472 0.035613298300144897
leaf_weight=9.7761833071708661 9.4886222779750806 186.345139734447 406.0975092202425 139.17869186401367 178.27833400666714 73.772797703742981 149.11279910802841 267.84428054839373 34.027162678539753 46.4391900151968 110.28276924043894 31.454019255936146 113.3112413212657 177.8411465883255 105.76161064207554 124.37179711461067 162.48741842806339 47.557896018028259 11.565405964851378 28.419406160712242 309.26874178647995 80.055555395781994 298.43082676827908 139.91635081917048 39.124519690871239 32.652406506240368 55.661032646894455 89.352128729224205 17.826429709792141 12.248385488986967
leaf_count=152 38 908 6314 2056 811 599 697 1277 261 239 735 140 900 644 415 674 626 152 179 116 1676 319 1332 1044 173 160 262 300 59 99
internal_value=0 0.0120164 0.0261198 0.000708809 -0.0215533 -0.0238813 -0.0165794 -0.0137699 -0.0101301 -0.0218565 -0.00276653 -0.000897744 -0.00786808 -0.0140602 -0.0219745 -0.0308205 -0.0173983 0.00175771 -0.0464995 0.0224318 -0.0534034 -0.0213813 -0.0125179 0.0249257 -0.0110705 0.0342542 -0.00991601 -0.0271242 0.0192239 -0.0233306
internal_weight=0 1125.91 847.034 440.937 2362.04 301.758 2043 1893.88 1715.61 755.727 487.883 959.879 755.856 377.6 331.161 278.874 575.001 153.32 197.911 180.855 319.045 540.974 378.486 204.023 67.5439 172.569 154.502 98.8408 103.848 30.0748
internal_count=23357 11488 10214 3900 11869 1844 10041 9344 8533 3462 2185 5071 3727 1450 1211 1274 2538 567 1087 1189 1828 2277 1651 1344 289 1204 600 338 757 158
is_linear=0
shrinkage=0.05


Tree=34
num_leaves=31
num_cat=0
split_feature=30 31 32 5 30 1 14 27 1 30 13 18 31 28 15 30 32 32 12 31 31 0 5 19 1 0 0 32 26 13
split_gain=318.212 254.869 226.403 218.075 144.972 111.555 77.9336 91.6808 60.3521 59.0059 56.3639 81.5806 100.122 57.4689 64.6362 47.6586 47.0942 47.0207 79.8025 53.2382 43.7334 43.42 37.0125 54.537 51.0749 35.9343 33.0304 32.5104 31.6079 31.3572
